      xx/10.        Omega0        Omega1        Omega2           C_l         r_avg
         [-]       [kg^-1]     [m kg^-1]   [m^2 kg^-1]           [-]           [m]
 1.02500E+00   2.29431E+20   7.69078E+10   3.15644E+01   4.88276E-05   3.35211E-10
 1.07500E+00   3.62204E+20   1.14512E+11   4.98569E+01   7.71448E-05   3.16152E-10
 1.12500E+00   4.92968E+20   1.34751E+11   6.78974E+01   1.05091E-04   2.73346E-10
 1.17500E+00   6.21790E+20   1.77684E+11   8.56939E+01   1.32678E-04   2.85762E-10
 1.22500E+00   7.48731E+20   2.24525E+11   1.03254E+02   1.59916E-04   2.99874E-10
 1.27500E+00   8.73849E+20   2.71601E+11   1.20584E+02   1.86816E-04   3.10810E-10
 1.32500E+00   9.97192E+20   3.18203E+11   1.37690E+02   2.13384E-04   3.19099E-10
 1.37500E+00   1.11881E+21   3.64206E+11   1.54578E+02   2.39630E-04   3.25531E-10
 1.42500E+00   1.23874E+21   4.09601E+11   1.71253E+02   2.65560E-04   3.30659E-10
 1.47500E+00   1.35703E+21   4.54395E+11   1.87719E+02   2.91183E-04   3.34845E-10
 1.52500E+00   1.47372E+21   4.98602E+11   2.03982E+02   3.16505E-04   3.38329E-10
 1.57500E+00   1.58885E+21   5.42238E+11   2.20047E+02   3.41532E-04   3.41278E-10
 1.62500E+00   1.70244E+21   5.85314E+11   2.35917E+02   3.66271E-04   3.43808E-10
 1.67500E+00   1.81455E+21   6.27846E+11   2.51597E+02   3.90728E-04   3.46006E-10
 1.72500E+00   1.92520E+21   6.69843E+11   2.67090E+02   4.14908E-04   3.47935E-10
 1.77500E+00   2.03442E+21   7.11316E+11   2.82402E+02   4.38817E-04   3.49641E-10
 1.82500E+00   2.14225E+21   7.52274E+11   2.97535E+02   4.62461E-04   3.51161E-10
 1.87500E+00   2.24871E+21   7.92728E+11   3.12493E+02   4.85845E-04   3.52526E-10
 1.92500E+00   2.35384E+21   8.32691E+11   3.27280E+02   5.08975E-04   3.53758E-10
 1.97500E+00   2.45767E+21   8.72170E+11   3.41900E+02   5.31855E-04   3.54877E-10
 2.02500E+00   2.56022E+21   9.11179E+11   3.56355E+02   5.54490E-04   3.55899E-10
 2.07500E+00   2.66152E+21   9.49730E+11   3.70650E+02   5.76885E-04   3.56838E-10
 2.12500E+00   2.76160E+21   9.87834E+11   3.84787E+02   5.99045E-04   3.57704E-10
 2.17500E+00   2.86048E+21   1.02550E+12   3.98770E+02   6.20974E-04   3.58507E-10
 2.22500E+00   2.95819E+21   1.06274E+12   4.12601E+02   6.42677E-04   3.59253E-10
 2.27500E+00   3.05475E+21   1.09955E+12   4.26283E+02   6.64157E-04   3.59949E-10
 2.32500E+00   3.15018E+21   1.13596E+12   4.39820E+02   6.85419E-04   3.60600E-10
 2.37500E+00   3.24452E+21   1.17195E+12   4.53213E+02   7.06468E-04   3.61210E-10
 2.42500E+00   3.33778E+21   1.20755E+12   4.66467E+02   7.27307E-04   3.61783E-10
 2.47500E+00   3.42998E+21   1.24276E+12   4.79583E+02   7.47939E-04   3.62322E-10
 2.52500E+00   3.52114E+21   1.27758E+12   4.92564E+02   7.68369E-04   3.62832E-10
 2.57500E+00   3.61128E+21   1.31203E+12   5.05413E+02   7.88601E-04   3.63314E-10
 2.62500E+00   3.70043E+21   1.34611E+12   5.18132E+02   8.08637E-04   3.63771E-10
 2.67500E+00   3.78860E+21   1.37983E+12   5.30722E+02   8.28481E-04   3.64206E-10
 2.72500E+00   3.87581E+21   1.41319E+12   5.43188E+02   8.48136E-04   3.64619E-10
 2.77500E+00   3.96208E+21   1.44620E+12   5.55530E+02   8.67607E-04   3.65011E-10
 2.82500E+00   4.04743E+21   1.47887E+12   5.67752E+02   8.86896E-04   3.65385E-10
 2.87500E+00   4.13187E+21   1.51120E+12   5.79854E+02   9.06006E-04   3.65742E-10
 2.92500E+00   4.21542E+21   1.54320E+12   5.91840E+02   9.24939E-04   3.66084E-10
 2.97500E+00   4.29810E+21   1.57487E+12   6.03711E+02   9.43700E-04   3.66411E-10
 3.02500E+00   4.37992E+21   1.60623E+12   6.15470E+02   9.62291E-04   3.66725E-10
 3.07500E+00   4.46091E+21   1.63727E+12   6.27117E+02   9.80716E-04   3.67027E-10
 3.12500E+00   4.54107E+21   1.66801E+12   6.38657E+02   9.98976E-04   3.67317E-10
 3.17500E+00   4.62042E+21   1.69845E+12   6.50089E+02   1.01707E-03   3.67597E-10
 3.22500E+00   4.69898E+21   1.72860E+12   6.61417E+02   1.03502E-03   3.67866E-10
 3.27500E+00   4.77676E+21   1.75845E+12   6.72642E+02   1.05280E-03   3.68126E-10
 3.32500E+00   4.85377E+21   1.78801E+12   6.83765E+02   1.07043E-03   3.68377E-10
 3.37500E+00   4.93003E+21   1.81730E+12   6.94788E+02   1.08791E-03   3.68619E-10
 3.42500E+00   5.00554E+21   1.84631E+12   7.05712E+02   1.10524E-03   3.68854E-10
 3.47500E+00   5.08033E+21   1.87506E+12   7.16541E+02   1.12243E-03   3.69081E-10
 3.52500E+00   5.15441E+21   1.90353E+12   7.27273E+02   1.13947E-03   3.69302E-10
 3.57500E+00   5.22778E+21   1.93175E+12   7.37913E+02   1.15636E-03   3.69516E-10
 3.62500E+00   5.30046E+21   1.95971E+12   7.48460E+02   1.17312E-03   3.69724E-10
 3.67500E+00   5.37246E+21   1.98741E+12   7.58917E+02   1.18974E-03   3.69926E-10
 3.72500E+00   5.44379E+21   2.01487E+12   7.69285E+02   1.20623E-03   3.70123E-10
 3.77500E+00   5.51448E+21   2.04209E+12   7.79565E+02   1.22258E-03   3.70314E-10
 3.82500E+00   5.58452E+21   2.06907E+12   7.89760E+02   1.23881E-03   3.70500E-10
 3.87500E+00   5.65392E+21   2.09581E+12   7.99870E+02   1.25490E-03   3.70683E-10
 3.92500E+00   5.72270E+21   2.12233E+12   8.09896E+02   1.27087E-03   3.70861E-10
 3.97500E+00   5.79088E+21   2.14861E+12   8.19841E+02   1.28671E-03   3.71035E-10
 4.02500E+00   5.85845E+21   2.17468E+12   8.29705E+02   1.30243E-03   3.71204E-10
 4.07500E+00   5.92543E+21   2.20052E+12   8.39489E+02   1.31803E-03   3.71369E-10
 4.12500E+00   5.99182E+21   2.22614E+12   8.49195E+02   1.33351E-03   3.71530E-10
 4.17500E+00   6.05765E+21   2.25155E+12   8.58824E+02   1.34887E-03   3.71688E-10
 4.22500E+00   6.12291E+21   2.27675E+12   8.68377E+02   1.36411E-03   3.71842E-10
 4.27500E+00   6.18761E+21   2.30175E+12   8.77855E+02   1.37924E-03   3.71993E-10
 4.32500E+00   6.25177E+21   2.32654E+12   8.87260E+02   1.39426E-03   3.72142E-10
 4.37500E+00   6.31539E+21   2.35114E+12   8.96591E+02   1.40917E-03   3.72287E-10
 4.42500E+00   6.37847E+21   2.37553E+12   9.05850E+02   1.42396E-03   3.72429E-10
 4.47500E+00   6.44104E+21   2.39973E+12   9.15039E+02   1.43865E-03   3.72569E-10
 4.52500E+00   6.50308E+21   2.42374E+12   9.24158E+02   1.45323E-03   3.72706E-10
 4.57500E+00   6.56462E+21   2.44755E+12   9.33208E+02   1.46771E-03   3.72840E-10
 4.62500E+00   6.62565E+21   2.47118E+12   9.42189E+02   1.48208E-03   3.72972E-10
 4.67500E+00   6.68619E+21   2.49462E+12   9.51104E+02   1.49635E-03   3.73101E-10
 4.72500E+00   6.74624E+21   2.51788E+12   9.59951E+02   1.51052E-03   3.73228E-10
 4.77500E+00   6.80580E+21   2.54096E+12   9.68733E+02   1.52458E-03   3.73352E-10
 4.82500E+00   6.86488E+21   2.56385E+12   9.77449E+02   1.53855E-03   3.73473E-10
 4.87500E+00   6.92349E+21   2.58656E+12   9.86101E+02   1.55242E-03   3.73592E-10
 4.92500E+00   6.98164E+21   2.60909E+12   9.94690E+02   1.56619E-03   3.73708E-10
 4.97500E+00   7.03933E+21   2.63145E+12   1.00322E+03   1.57986E-03   3.73821E-10
 5.02500E+00   7.09657E+21   2.65364E+12   1.01168E+03   1.59344E-03   3.73932E-10
 5.07500E+00   7.15337E+21   2.67566E+12   1.02009E+03   1.60693E-03   3.74042E-10
 5.12500E+00   7.20973E+21   2.69752E+12   1.02843E+03   1.62032E-03   3.74150E-10
 5.17500E+00   7.26566E+21   2.71921E+12   1.03672E+03   1.63363E-03   3.74256E-10
 5.22500E+00   7.32116E+21   2.74075E+12   1.04495E+03   1.64684E-03   3.74360E-10
 5.27500E+00   7.37625E+21   2.76213E+12   1.05312E+03   1.65997E-03   3.74462E-10
 5.32500E+00   7.43093E+21   2.78335E+12   1.06123E+03   1.67301E-03   3.74563E-10
 5.37500E+00   7.48519E+21   2.80442E+12   1.06929E+03   1.68596E-03   3.74662E-10
 5.42500E+00   7.53907E+21   2.82534E+12   1.07729E+03   1.69883E-03   3.74760E-10
 5.47500E+00   7.59254E+21   2.84611E+12   1.08524E+03   1.71162E-03   3.74856E-10
 5.52500E+00   7.64563E+21   2.86673E+12   1.09314E+03   1.72432E-03   3.74950E-10
 5.57500E+00   7.69834E+21   2.88720E+12   1.10098E+03   1.73694E-03   3.75042E-10
 5.62500E+00   7.75066E+21   2.90753E+12   1.10878E+03   1.74949E-03   3.75133E-10
 5.67500E+00   7.80261E+21   2.92771E+12   1.11651E+03   1.76195E-03   3.75221E-10
 5.72500E+00   7.85419E+21   2.94775E+12   1.12420E+03   1.77433E-03   3.75309E-10
 5.77500E+00   7.90541E+21   2.96764E+12   1.13184E+03   1.78664E-03   3.75394E-10
 5.82500E+00   7.95626E+21   2.98741E+12   1.13943E+03   1.79886E-03   3.75479E-10
 5.87500E+00   8.00676E+21   3.00704E+12   1.14697E+03   1.81102E-03   3.75563E-10
 5.92500E+00   8.05691E+21   3.02655E+12   1.15446E+03   1.82309E-03   3.75646E-10
 5.97500E+00   8.10672E+21   3.04593E+12   1.16190E+03   1.83510E-03   3.75729E-10
 6.02500E+00   8.15619E+21   3.06518E+12   1.16930E+03   1.84703E-03   3.75811E-10
 6.07500E+00   8.20533E+21   3.08432E+12   1.17665E+03   1.85889E-03   3.75892E-10
 6.12500E+00   8.25413E+21   3.10333E+12   1.18395E+03   1.87067E-03   3.75973E-10
 6.17500E+00   8.30260E+21   3.12222E+12   1.19121E+03   1.88239E-03   3.76053E-10
 6.22500E+00   8.35076E+21   3.14099E+12   1.19842E+03   1.89404E-03   3.76132E-10
 6.27500E+00   8.39860E+21   3.15964E+12   1.20559E+03   1.90562E-03   3.76211E-10
 6.32500E+00   8.44613E+21   3.17817E+12   1.21272E+03   1.91713E-03   3.76287E-10
 6.37500E+00   8.49334E+21   3.19658E+12   1.21980E+03   1.92857E-03   3.76364E-10
 6.42500E+00   8.54025E+21   3.21488E+12   1.22684E+03   1.93995E-03   3.76439E-10
 6.47500E+00   8.58686E+21   3.23307E+12   1.23384E+03   1.95127E-03   3.76513E-10
 6.52500E+00   8.63318E+21   3.25114E+12   1.24079E+03   1.96252E-03   3.76586E-10
 6.57500E+00   8.67920E+21   3.26909E+12   1.24771E+03   1.97370E-03   3.76658E-10
 6.62500E+00   8.72494E+21   3.28694E+12   1.25459E+03   1.98482E-03   3.76729E-10
 6.67500E+00   8.77038E+21   3.30468E+12   1.26142E+03   1.99588E-03   3.76800E-10
 6.72500E+00   8.81554E+21   3.32231E+12   1.26822E+03   2.00688E-03   3.76869E-10
 6.77500E+00   8.86042E+21   3.33983E+12   1.27497E+03   2.01782E-03   3.76938E-10
 6.82500E+00   8.90502E+21   3.35724E+12   1.28169E+03   2.02869E-03   3.77005E-10
 6.87500E+00   8.94934E+21   3.37455E+12   1.28837E+03   2.03951E-03   3.77072E-10
 6.92500E+00   8.99340E+21   3.39176E+12   1.29501E+03   2.05027E-03   3.77139E-10
 6.97500E+00   9.03718E+21   3.40887E+12   1.30161E+03   2.06096E-03   3.77205E-10
 7.02500E+00   9.08070E+21   3.42588E+12   1.30817E+03   2.07160E-03   3.77270E-10
 7.07500E+00   9.12396E+21   3.44279E+12   1.31470E+03   2.08218E-03   3.77335E-10
 7.12500E+00   9.16696E+21   3.45960E+12   1.32119E+03   2.09271E-03   3.77399E-10
 7.17500E+00   9.20971E+21   3.47632E+12   1.32765E+03   2.10318E-03   3.77462E-10
 7.22500E+00   9.25220E+21   3.49293E+12   1.33407E+03   2.11359E-03   3.77525E-10
 7.27500E+00   9.29443E+21   3.50945E+12   1.34045E+03   2.12394E-03   3.77587E-10
 7.32500E+00   9.33642E+21   3.52588E+12   1.34680E+03   2.13424E-03   3.77648E-10
 7.37500E+00   9.37816E+21   3.54220E+12   1.35311E+03   2.14449E-03   3.77708E-10
 7.42500E+00   9.41965E+21   3.55843E+12   1.35939E+03   2.15468E-03   3.77767E-10
 7.47500E+00   9.46090E+21   3.57457E+12   1.36563E+03   2.16482E-03   3.77826E-10
 7.52500E+00   9.50190E+21   3.59062E+12   1.37184E+03   2.17490E-03   3.77884E-10
 7.57500E+00   9.54266E+21   3.60658E+12   1.37802E+03   2.18493E-03   3.77943E-10
 7.62500E+00   9.58318E+21   3.62245E+12   1.38416E+03   2.19490E-03   3.78001E-10
 7.67500E+00   9.62347E+21   3.63824E+12   1.39027E+03   2.20483E-03   3.78058E-10
 7.72500E+00   9.66353E+21   3.65393E+12   1.39634E+03   2.21470E-03   3.78116E-10
 7.77500E+00   9.70335E+21   3.66955E+12   1.40239E+03   2.22452E-03   3.78173E-10
 7.82500E+00   9.74294E+21   3.68508E+12   1.40839E+03   2.23429E-03   3.78231E-10
 7.87500E+00   9.78230E+21   3.70052E+12   1.41437E+03   2.24401E-03   3.78287E-10
 7.92500E+00   9.82144E+21   3.71589E+12   1.42031E+03   2.25368E-03   3.78344E-10
 7.97500E+00   9.86034E+21   3.73117E+12   1.42623E+03   2.26329E-03   3.78401E-10
 8.02500E+00   9.89901E+21   3.74636E+12   1.43210E+03   2.27286E-03   3.78458E-10
 8.07500E+00   9.93745E+21   3.76147E+12   1.43795E+03   2.28237E-03   3.78515E-10
 8.12500E+00   9.97567E+21   3.77650E+12   1.44376E+03   2.29184E-03   3.78571E-10
 8.17500E+00   1.00137E+22   3.79144E+12   1.44954E+03   2.30125E-03   3.78627E-10
 8.22500E+00   1.00514E+22   3.80631E+12   1.45529E+03   2.31061E-03   3.78683E-10
 8.27500E+00   1.00890E+22   3.82109E+12   1.46101E+03   2.31992E-03   3.78740E-10
 8.32500E+00   1.01263E+22   3.83579E+12   1.46669E+03   2.32918E-03   3.78796E-10
 8.37500E+00   1.01633E+22   3.85041E+12   1.47234E+03   2.33839E-03   3.78853E-10
 8.42500E+00   1.02002E+22   3.86494E+12   1.47796E+03   2.34755E-03   3.78908E-10
 8.47500E+00   1.02368E+22   3.87939E+12   1.48355E+03   2.35665E-03   3.78964E-10
 8.52500E+00   1.02732E+22   3.89375E+12   1.48910E+03   2.36570E-03   3.79021E-10
 8.57500E+00   1.03093E+22   3.90803E+12   1.49462E+03   2.37470E-03   3.79077E-10
 8.62500E+00   1.03452E+22   3.92223E+12   1.50010E+03   2.38364E-03   3.79134E-10
 8.67500E+00   1.03809E+22   3.93635E+12   1.50555E+03   2.39253E-03   3.79192E-10
 8.72500E+00   1.04163E+22   3.95039E+12   1.51096E+03   2.40137E-03   3.79250E-10
 8.77500E+00   1.04515E+22   3.96433E+12   1.51634E+03   2.41015E-03   3.79309E-10
 8.82500E+00   1.04864E+22   3.97820E+12   1.52168E+03   2.41887E-03   3.79369E-10
 8.87500E+00   1.05210E+22   3.99197E+12   1.52698E+03   2.42753E-03   3.79429E-10
 8.92500E+00   1.05554E+22   4.00566E+12   1.53225E+03   2.43613E-03   3.79491E-10
 8.97500E+00   1.05895E+22   4.01927E+12   1.53747E+03   2.44467E-03   3.79554E-10
 9.02500E+00   1.06233E+22   4.03279E+12   1.54266E+03   2.45315E-03   3.79619E-10
 9.07500E+00   1.06568E+22   4.04623E+12   1.54780E+03   2.46156E-03   3.79685E-10
 9.12500E+00   1.06900E+22   4.05957E+12   1.55291E+03   2.46991E-03   3.79754E-10
 9.17500E+00   1.07229E+22   4.07282E+12   1.55796E+03   2.47818E-03   3.79825E-10
 9.22500E+00   1.07555E+22   4.08599E+12   1.56297E+03   2.48638E-03   3.79898E-10
 9.27500E+00   1.07877E+22   4.09905E+12   1.56793E+03   2.49451E-03   3.79975E-10
 9.32500E+00   1.08196E+22   4.11203E+12   1.57284E+03   2.50256E-03   3.80054E-10
 9.37500E+00   1.08511E+22   4.12491E+12   1.57770E+03   2.51052E-03   3.80138E-10
 9.42500E+00   1.08822E+22   4.13768E+12   1.58250E+03   2.51840E-03   3.80225E-10
 9.47500E+00   1.09129E+22   4.15036E+12   1.58725E+03   2.52618E-03   3.80317E-10
 9.52500E+00   1.09432E+22   4.16292E+12   1.59193E+03   2.53387E-03   3.80413E-10
 9.57500E+00   1.09730E+22   4.17538E+12   1.59655E+03   2.54147E-03   3.80514E-10
 9.62500E+00   1.10023E+22   4.18771E+12   1.60111E+03   2.54896E-03   3.80620E-10
 9.67500E+00   1.10312E+22   4.19993E+12   1.60559E+03   2.55633E-03   3.80733E-10
 9.72500E+00   1.10595E+22   4.21203E+12   1.61000E+03   2.56359E-03   3.80851E-10
 9.77500E+00   1.10873E+22   4.22398E+12   1.61432E+03   2.57073E-03   3.80976E-10
 9.82500E+00   1.11144E+22   4.23580E+12   1.61857E+03   2.57773E-03   3.81108E-10
 9.87500E+00   1.11410E+22   4.24747E+12   1.62272E+03   2.58459E-03   3.81248E-10
 9.92500E+00   1.11668E+22   4.25898E+12   1.62678E+03   2.59131E-03   3.81396E-10
 9.97500E+00   1.11920E+22   4.27033E+12   1.63074E+03   2.59787E-03   3.81553E-10
 1.00250E+01   1.12164E+22   4.28151E+12   1.63460E+03   2.60426E-03   3.81720E-10
 1.00750E+01   1.12400E+22   4.29250E+12   1.63834E+03   2.61048E-03   3.81897E-10
 1.01250E+01   1.12627E+22   4.30330E+12   1.64196E+03   2.61651E-03   3.82085E-10
 1.01750E+01   1.12845E+22   4.31390E+12   1.64545E+03   2.62233E-03   3.82285E-10
 1.02250E+01   1.13054E+22   4.32428E+12   1.64880E+03   2.62794E-03   3.82498E-10
 1.02750E+01   1.13252E+22   4.33442E+12   1.65201E+03   2.63332E-03   3.82725E-10
 1.03250E+01   1.13439E+22   4.34432E+12   1.65506E+03   2.63846E-03   3.82966E-10
 1.03750E+01   1.13614E+22   4.35397E+12   1.65794E+03   2.64334E-03   3.83223E-10
 1.04250E+01   1.13778E+22   4.36335E+12   1.66066E+03   2.64795E-03   3.83498E-10
 1.04750E+01   1.13927E+22   4.37244E+12   1.66318E+03   2.65226E-03   3.83791E-10
 1.05250E+01   1.14063E+22   4.38122E+12   1.66550E+03   2.65626E-03   3.84105E-10
 1.05750E+01   1.14184E+22   4.38969E+12   1.66761E+03   2.65993E-03   3.84440E-10
 1.06250E+01   1.14289E+22   4.39781E+12   1.66950E+03   2.66324E-03   3.84797E-10
 1.06750E+01   1.14377E+22   4.40557E+12   1.67115E+03   2.66618E-03   3.85179E-10
 1.07250E+01   1.14448E+22   4.41295E+12   1.67255E+03   2.66873E-03   3.85587E-10
 1.07750E+01   1.14499E+22   4.41994E+12   1.67367E+03   2.67085E-03   3.86023E-10
 1.08250E+01   1.14531E+22   4.42648E+12   1.67452E+03   2.67253E-03   3.86487E-10
 1.08750E+01   1.14542E+22   4.43251E+12   1.67506E+03   2.67373E-03   3.86977E-10
 1.09250E+01   1.14530E+22   4.43796E+12   1.67529E+03   2.67444E-03   3.87492E-10
 1.09750E+01   1.14495E+22   4.44284E+12   1.67518E+03   2.67462E-03   3.88037E-10
 1.10250E+01   1.14436E+22   4.44728E+12   1.67472E+03   2.67424E-03   3.88627E-10
 1.10750E+01   1.14350E+22   4.45145E+12   1.67388E+03   2.67328E-03   3.89282E-10
 1.11250E+01   1.14238E+22   4.45521E+12   1.67266E+03   2.67170E-03   3.89995E-10
 1.11750E+01   1.14097E+22   4.45792E+12   1.67103E+03   2.66947E-03   3.90714E-10
 1.12250E+01   1.13926E+22   4.45868E+12   1.66897E+03   2.66657E-03   3.91367E-10
 1.12750E+01   1.13724E+22   4.45924E+12   1.66646E+03   2.66296E-03   3.92110E-10
 1.13250E+01   1.13490E+22   4.45967E+12   1.66348E+03   2.65860E-03   3.92958E-10
 1.13750E+01   1.13222E+22   4.45906E+12   1.66001E+03   2.65347E-03   3.93834E-10
 1.14250E+01   1.12919E+22   4.45747E+12   1.65603E+03   2.64753E-03   3.94750E-10
 1.14750E+01   1.12579E+22   4.45487E+12   1.65153E+03   2.64075E-03   3.95710E-10
 1.15250E+01   1.12203E+22   4.45125E+12   1.64648E+03   2.63310E-03   3.96715E-10
 1.15750E+01   1.11787E+22   4.44653E+12   1.64086E+03   2.62455E-03   3.97768E-10
 1.16250E+01   1.11332E+22   4.44066E+12   1.63466E+03   2.61507E-03   3.98868E-10
 1.16750E+01   1.10836E+22   4.43359E+12   1.62786E+03   2.60463E-03   4.00015E-10
 1.17250E+01   1.10297E+22   4.42525E+12   1.62044E+03   2.59321E-03   4.01211E-10
 1.17750E+01   1.09716E+22   4.41557E+12   1.61239E+03   2.58077E-03   4.02453E-10
 1.18250E+01   1.09092E+22   4.40450E+12   1.60369E+03   2.56730E-03   4.03742E-10
 1.18750E+01   1.08423E+22   4.39196E+12   1.59434E+03   2.55277E-03   4.05077E-10
 1.19250E+01   1.07709E+22   4.37789E+12   1.58431E+03   2.53716E-03   4.06455E-10
 1.19750E+01   1.06950E+22   4.36222E+12   1.57361E+03   2.52047E-03   4.07875E-10
 1.20250E+01   1.06145E+22   4.34489E+12   1.56223E+03   2.50267E-03   4.09335E-10
 1.20750E+01   1.05295E+22   4.32584E+12   1.55016E+03   2.48376E-03   4.10832E-10
 1.21250E+01   1.04398E+22   4.30499E+12   1.53740E+03   2.46374E-03   4.12362E-10
 1.21750E+01   1.03456E+22   4.28229E+12   1.52395E+03   2.44260E-03   4.13923E-10
 1.22250E+01   1.02469E+22   4.25767E+12   1.50981E+03   2.42034E-03   4.15508E-10
 1.22750E+01   1.01437E+22   4.23110E+12   1.49499E+03   2.39697E-03   4.17115E-10
 1.23250E+01   1.00361E+22   4.20249E+12   1.47950E+03   2.37251E-03   4.18737E-10
 1.23750E+01   9.92422E+21   4.17181E+12   1.46335E+03   2.34697E-03   4.20367E-10
 1.24250E+01   9.80811E+21   4.13902E+12   1.44656E+03   2.32036E-03   4.22000E-10
 1.24750E+01   9.68791E+21   4.10406E+12   1.42913E+03   2.29273E-03   4.23627E-10
 1.25250E+01   9.56377E+21   4.06692E+12   1.41109E+03   2.26408E-03   4.25242E-10
 1.25750E+01   9.43585E+21   4.02755E+12   1.39246E+03   2.23447E-03   4.26834E-10
 1.26250E+01   9.30431E+21   3.98593E+12   1.37327E+03   2.20392E-03   4.28396E-10
 1.26750E+01   9.16934E+21   3.94206E+12   1.35354E+03   2.17248E-03   4.29918E-10
 1.27250E+01   9.03113E+21   3.89593E+12   1.33330E+03   2.14019E-03   4.31389E-10
 1.27750E+01   8.88990E+21   3.84755E+12   1.31258E+03   2.10711E-03   4.32800E-10
 1.28250E+01   8.74587E+21   3.79693E+12   1.29142E+03   2.07328E-03   4.34139E-10
 1.28750E+01   8.59925E+21   3.74408E+12   1.26984E+03   2.03877E-03   4.35396E-10
