      xx/10.          rhoa          temp           vel      vel*rhoa
         [-]           [-]           [-]           [-]           [-]
 1.02500E+00   2.65571E+00   9.38960E-01   4.48539E-01   1.19119E+00
 1.07500E+00   2.65437E+00   9.39386E-01   4.48550E-01   1.19062E+00
 1.12500E+00   2.65352E+00   9.40041E-01   4.48282E-01   1.18952E+00
 1.17500E+00   2.65251E+00   9.40928E-01   4.47921E-01   1.18811E+00
 1.22500E+00   2.65091E+00   9.42066E-01   4.47579E-01   1.18649E+00
 1.27500E+00   2.64839E+00   9.43479E-01   4.47329E-01   1.18470E+00
 1.32500E+00   2.64473E+00   9.45198E-01   4.47219E-01   1.18277E+00
 1.37500E+00   2.63973E+00   9.47251E-01   4.47283E-01   1.18071E+00
 1.42500E+00   2.63325E+00   9.49663E-01   4.47549E-01   1.17851E+00
 1.47500E+00   2.62518E+00   9.52454E-01   4.48038E-01   1.17618E+00
 1.52500E+00   2.61545E+00   9.55636E-01   4.48767E-01   1.17373E+00
 1.57500E+00   2.60406E+00   9.59207E-01   4.49749E-01   1.17117E+00
 1.62500E+00   2.59101E+00   9.63157E-01   4.50994E-01   1.16853E+00
 1.67500E+00   2.57641E+00   9.67459E-01   4.52505E-01   1.16584E+00
 1.72500E+00   2.56039E+00   9.72073E-01   4.54280E-01   1.16314E+00
 1.77500E+00   2.54316E+00   9.76943E-01   4.56311E-01   1.16047E+00
 1.82500E+00   2.52494E+00   9.82004E-01   4.58582E-01   1.15789E+00
 1.87500E+00   2.50601E+00   9.87181E-01   4.61073E-01   1.15545E+00
 1.92500E+00   2.48668E+00   9.92392E-01   4.63755E-01   1.15321E+00
 1.97500E+00   2.46724E+00   9.97556E-01   4.66594E-01   1.15120E+00
 2.02500E+00   2.44800E+00   1.00259E+00   4.69555E-01   1.14947E+00
 2.07500E+00   2.42923E+00   1.00743E+00   4.72597E-01   1.14805E+00
 2.12500E+00   2.41116E+00   1.01201E+00   4.75683E-01   1.14695E+00
 2.17500E+00   2.39400E+00   1.01629E+00   4.78774E-01   1.14618E+00
 2.22500E+00   2.37789E+00   1.02023E+00   4.81836E-01   1.14575E+00
 2.27500E+00   2.36293E+00   1.02381E+00   4.84840E-01   1.14564E+00
 2.32500E+00   2.34919E+00   1.02703E+00   4.87762E-01   1.14585E+00
 2.37500E+00   2.33667E+00   1.02989E+00   4.90584E-01   1.14633E+00
 2.42500E+00   2.32536E+00   1.03240E+00   4.93295E-01   1.14709E+00
 2.47500E+00   2.31522E+00   1.03460E+00   4.95886E-01   1.14808E+00
 2.52500E+00   2.30618E+00   1.03649E+00   4.98357E-01   1.14930E+00
 2.57500E+00   2.29817E+00   1.03812E+00   5.00709E-01   1.15072E+00
 2.62500E+00   2.29113E+00   1.03950E+00   5.02946E-01   1.15231E+00
 2.67500E+00   2.28495E+00   1.04066E+00   5.05075E-01   1.15407E+00
 2.72500E+00   2.27958E+00   1.04163E+00   5.07105E-01   1.15599E+00
 2.77500E+00   2.27494E+00   1.04243E+00   5.09045E-01   1.15805E+00
 2.82500E+00   2.27096E+00   1.04307E+00   5.10905E-01   1.16024E+00
 2.87500E+00   2.26758E+00   1.04358E+00   5.12695E-01   1.16258E+00
 2.92500E+00   2.26475E+00   1.04397E+00   5.14423E-01   1.16504E+00
 2.97500E+00   2.26244E+00   1.04425E+00   5.16099E-01   1.16764E+00
 3.02500E+00   2.26060E+00   1.04444E+00   5.17731E-01   1.17038E+00
 3.07500E+00   2.25920E+00   1.04453E+00   5.19327E-01   1.17326E+00
 3.12500E+00   2.25821E+00   1.04455E+00   5.20895E-01   1.17629E+00
 3.17500E+00   2.25762E+00   1.04449E+00   5.22440E-01   1.17947E+00
 3.22500E+00   2.25741E+00   1.04436E+00   5.23969E-01   1.18281E+00
 3.27500E+00   2.25755E+00   1.04417E+00   5.25487E-01   1.18631E+00
 3.32500E+00   2.25802E+00   1.04391E+00   5.26997E-01   1.18997E+00
 3.37500E+00   2.25882E+00   1.04359E+00   5.28503E-01   1.19379E+00
 3.42500E+00   2.25992E+00   1.04322E+00   5.30008E-01   1.19778E+00
 3.47500E+00   2.26129E+00   1.04280E+00   5.31513E-01   1.20191E+00
 3.52500E+00   2.26291E+00   1.04233E+00   5.33019E-01   1.20618E+00
 3.57500E+00   2.26474E+00   1.04182E+00   5.34526E-01   1.21056E+00
 3.62500E+00   2.26675E+00   1.04129E+00   5.36033E-01   1.21505E+00
 3.67500E+00   2.26888E+00   1.04073E+00   5.37536E-01   1.21960E+00
 3.72500E+00   2.27109E+00   1.04017E+00   5.39034E-01   1.22419E+00
 3.77500E+00   2.27331E+00   1.03960E+00   5.40523E-01   1.22878E+00
 3.82500E+00   2.27549E+00   1.03905E+00   5.41997E-01   1.23331E+00
 3.87500E+00   2.27755E+00   1.03853E+00   5.43452E-01   1.23774E+00
 3.92500E+00   2.27944E+00   1.03806E+00   5.44882E-01   1.24202E+00
 3.97500E+00   2.28108E+00   1.03764E+00   5.46282E-01   1.24611E+00
 4.02500E+00   2.28241E+00   1.03730E+00   5.47644E-01   1.24995E+00
 4.07500E+00   2.28337E+00   1.03704E+00   5.48964E-01   1.25349E+00
 4.12500E+00   2.28391E+00   1.03688E+00   5.50235E-01   1.25669E+00
 4.17500E+00   2.28399E+00   1.03683E+00   5.51451E-01   1.25951E+00
 4.22500E+00   2.28359E+00   1.03688E+00   5.52608E-01   1.26193E+00
 4.27500E+00   2.28269E+00   1.03705E+00   5.53700E-01   1.26393E+00
 4.32500E+00   2.28129E+00   1.03732E+00   5.54722E-01   1.26548E+00
 4.37500E+00   2.27940E+00   1.03771E+00   5.55671E-01   1.26660E+00
 4.42500E+00   2.27705E+00   1.03819E+00   5.56544E-01   1.26728E+00
 4.47500E+00   2.27427E+00   1.03876E+00   5.57338E-01   1.26754E+00
 4.52500E+00   2.27111E+00   1.03941E+00   5.58050E-01   1.26739E+00
 4.57500E+00   2.26762E+00   1.04011E+00   5.58680E-01   1.26687E+00
 4.62500E+00   2.26387E+00   1.04087E+00   5.59224E-01   1.26601E+00
 4.67500E+00   2.25990E+00   1.04166E+00   5.59684E-01   1.26483E+00
 4.72500E+00   2.25579E+00   1.04246E+00   5.60059E-01   1.26338E+00
 4.77500E+00   2.25159E+00   1.04326E+00   5.60350E-01   1.26168E+00
 4.82500E+00   2.24735E+00   1.04406E+00   5.60559E-01   1.25977E+00
 4.87500E+00   2.24312E+00   1.04483E+00   5.60686E-01   1.25769E+00
 4.92500E+00   2.23895E+00   1.04556E+00   5.60733E-01   1.25546E+00
 4.97500E+00   2.23487E+00   1.04626E+00   5.60705E-01   1.25310E+00
 5.02500E+00   2.23091E+00   1.04691E+00   5.60602E-01   1.25065E+00
 5.07500E+00   2.22708E+00   1.04750E+00   5.60430E-01   1.24812E+00
 5.12500E+00   2.22341E+00   1.04805E+00   5.60191E-01   1.24554E+00
 5.17500E+00   2.21991E+00   1.04854E+00   5.59890E-01   1.24290E+00
 5.22500E+00   2.21656E+00   1.04897E+00   5.59531E-01   1.24024E+00
 5.27500E+00   2.21339E+00   1.04935E+00   5.59118E-01   1.23755E+00
 5.32500E+00   2.21037E+00   1.04969E+00   5.58658E-01   1.23484E+00
 5.37500E+00   2.20750E+00   1.04998E+00   5.58154E-01   1.23213E+00
 5.42500E+00   2.20477E+00   1.05023E+00   5.57612E-01   1.22941E+00
 5.47500E+00   2.20216E+00   1.05045E+00   5.57036E-01   1.22668E+00
 5.52500E+00   2.19964E+00   1.05064E+00   5.56434E-01   1.22395E+00
 5.57500E+00   2.19720E+00   1.05082E+00   5.55813E-01   1.22123E+00
 5.62500E+00   2.19484E+00   1.05098E+00   5.55178E-01   1.21852E+00
 5.67500E+00   2.19256E+00   1.05112E+00   5.54532E-01   1.21584E+00
 5.72500E+00   2.19036E+00   1.05123E+00   5.53880E-01   1.21319E+00
 5.77500E+00   2.18824E+00   1.05132E+00   5.53223E-01   1.21058E+00
 5.82500E+00   2.18620E+00   1.05140E+00   5.52565E-01   1.20801E+00
 5.87500E+00   2.18424E+00   1.05145E+00   5.51906E-01   1.20549E+00
 5.92500E+00   2.18236E+00   1.05149E+00   5.51249E-01   1.20302E+00
 5.97500E+00   2.18055E+00   1.05151E+00   5.50596E-01   1.20060E+00
 6.02500E+00   2.17883E+00   1.05152E+00   5.49948E-01   1.19824E+00
 6.07500E+00   2.17718E+00   1.05151E+00   5.49307E-01   1.19594E+00
 6.12500E+00   2.17561E+00   1.05149E+00   5.48675E-01   1.19370E+00
 6.17500E+00   2.17412E+00   1.05146E+00   5.48052E-01   1.19153E+00
 6.22500E+00   2.17270E+00   1.05142E+00   5.47441E-01   1.18942E+00
 6.27500E+00   2.17135E+00   1.05137E+00   5.46840E-01   1.18738E+00
 6.32500E+00   2.17007E+00   1.05131E+00   5.46253E-01   1.18541E+00
 6.37500E+00   2.16886E+00   1.05124E+00   5.45679E-01   1.18350E+00
 6.42500E+00   2.16772E+00   1.05118E+00   5.45120E-01   1.18167E+00
 6.47500E+00   2.16665E+00   1.05110E+00   5.44575E-01   1.17990E+00
 6.52500E+00   2.16564E+00   1.05102E+00   5.44045E-01   1.17820E+00
 6.57500E+00   2.16470E+00   1.05094E+00   5.43531E-01   1.17658E+00
 6.62500E+00   2.16382E+00   1.05086E+00   5.43033E-01   1.17503E+00
 6.67500E+00   2.16301E+00   1.05078E+00   5.42551E-01   1.17354E+00
 6.72500E+00   2.16225E+00   1.05070E+00   5.42086E-01   1.17213E+00
 6.77500E+00   2.16156E+00   1.05061E+00   5.41637E-01   1.17078E+00
 6.82500E+00   2.16093E+00   1.05053E+00   5.41205E-01   1.16950E+00
 6.87500E+00   2.16035E+00   1.05045E+00   5.40789E-01   1.16829E+00
 6.92500E+00   2.15983E+00   1.05037E+00   5.40389E-01   1.16715E+00
 6.97500E+00   2.15936E+00   1.05029E+00   5.40007E-01   1.16607E+00
 7.02500E+00   2.15894E+00   1.05021E+00   5.39640E-01   1.16505E+00
 7.07500E+00   2.15858E+00   1.05014E+00   5.39290E-01   1.16410E+00
 7.12500E+00   2.15826E+00   1.05007E+00   5.38956E-01   1.16321E+00
 7.17500E+00   2.15799E+00   1.05000E+00   5.38638E-01   1.16237E+00
 7.22500E+00   2.15776E+00   1.04993E+00   5.38335E-01   1.16160E+00
 7.27500E+00   2.15757E+00   1.04987E+00   5.38047E-01   1.16088E+00
 7.32500E+00   2.15743E+00   1.04981E+00   5.37774E-01   1.16021E+00
 7.37500E+00   2.15732E+00   1.04975E+00   5.37515E-01   1.15959E+00
 7.42500E+00   2.15724E+00   1.04970E+00   5.37270E-01   1.15902E+00
 7.47500E+00   2.15719E+00   1.04965E+00   5.37040E-01   1.15850E+00
 7.52500E+00   2.15717E+00   1.04960E+00   5.36823E-01   1.15802E+00
 7.57500E+00   2.15718E+00   1.04956E+00   5.36618E-01   1.15758E+00
 7.62500E+00   2.15720E+00   1.04951E+00   5.36426E-01   1.15718E+00
 7.67500E+00   2.15725E+00   1.04947E+00   5.36247E-01   1.15682E+00
 7.72500E+00   2.15731E+00   1.04944E+00   5.36079E-01   1.15649E+00
 7.77500E+00   2.15738E+00   1.04940E+00   5.35922E-01   1.15619E+00
 7.82500E+00   2.15746E+00   1.04937E+00   5.35777E-01   1.15592E+00
 7.87500E+00   2.15754E+00   1.04934E+00   5.35642E-01   1.15567E+00
 7.92500E+00   2.15763E+00   1.04931E+00   5.35518E-01   1.15545E+00
 7.97500E+00   2.15771E+00   1.04928E+00   5.35404E-01   1.15525E+00
 8.02500E+00   2.15779E+00   1.04926E+00   5.35300E-01   1.15507E+00
 8.07500E+00   2.15787E+00   1.04924E+00   5.35205E-01   1.15490E+00
 8.12500E+00   2.15793E+00   1.04922E+00   5.35119E-01   1.15475E+00
 8.17500E+00   2.15799E+00   1.04920E+00   5.35043E-01   1.15462E+00
 8.22500E+00   2.15803E+00   1.04918E+00   5.34975E-01   1.15449E+00
 8.27500E+00   2.15806E+00   1.04917E+00   5.34916E-01   1.15438E+00
 8.32500E+00   2.15808E+00   1.04915E+00   5.34866E-01   1.15428E+00
 8.37500E+00   2.15807E+00   1.04914E+00   5.34824E-01   1.15419E+00
 8.42500E+00   2.15805E+00   1.04913E+00   5.34789E-01   1.15410E+00
 8.47500E+00   2.15801E+00   1.04911E+00   5.34761E-01   1.15402E+00
 8.52500E+00   2.15795E+00   1.04910E+00   5.34740E-01   1.15394E+00
 8.57500E+00   2.15786E+00   1.04909E+00   5.34726E-01   1.15387E+00
 8.62500E+00   2.15776E+00   1.04908E+00   5.34717E-01   1.15379E+00
 8.67500E+00   2.15763E+00   1.04906E+00   5.34713E-01   1.15371E+00
 8.72500E+00   2.15749E+00   1.04905E+00   5.34714E-01   1.15364E+00
 8.77500E+00   2.15732E+00   1.04904E+00   5.34720E-01   1.15356E+00
 8.82500E+00   2.15713E+00   1.04903E+00   5.34731E-01   1.15349E+00
 8.87500E+00   2.15693E+00   1.04901E+00   5.34746E-01   1.15341E+00
 8.92500E+00   2.15671E+00   1.04900E+00   5.34765E-01   1.15333E+00
 8.97500E+00   2.15647E+00   1.04899E+00   5.34787E-01   1.15325E+00
 9.02500E+00   2.15622E+00   1.04898E+00   5.34813E-01   1.15317E+00
 9.07500E+00   2.15596E+00   1.04897E+00   5.34842E-01   1.15310E+00
 9.12500E+00   2.15569E+00   1.04896E+00   5.34874E-01   1.15302E+00
 9.17500E+00   2.15541E+00   1.04895E+00   5.34909E-01   1.15295E+00
 9.22500E+00   2.15513E+00   1.04894E+00   5.34947E-01   1.15288E+00
 9.27500E+00   2.15484E+00   1.04893E+00   5.34987E-01   1.15281E+00
 9.32500E+00   2.15456E+00   1.04892E+00   5.35030E-01   1.15275E+00
 9.37500E+00   2.15427E+00   1.04891E+00   5.35074E-01   1.15270E+00
 9.42500E+00   2.15399E+00   1.04890E+00   5.35121E-01   1.15265E+00
 9.47500E+00   2.15372E+00   1.04890E+00   5.35170E-01   1.15261E+00
 9.52500E+00   2.15346E+00   1.04889E+00   5.35221E-01   1.15257E+00
 9.57500E+00   2.15320E+00   1.04888E+00   5.35274E-01   1.15255E+00
 9.62500E+00   2.15296E+00   1.04888E+00   5.35328E-01   1.15254E+00
 9.67500E+00   2.15273E+00   1.04887E+00   5.35383E-01   1.15253E+00
 9.72500E+00   2.15251E+00   1.04886E+00   5.35440E-01   1.15254E+00
 9.77500E+00   2.15232E+00   1.04886E+00   5.35499E-01   1.15256E+00
 9.82500E+00   2.15214E+00   1.04886E+00   5.35558E-01   1.15259E+00
 9.87500E+00   2.15198E+00   1.04885E+00   5.35619E-01   1.15264E+00
 9.92500E+00   2.15183E+00   1.04885E+00   5.35681E-01   1.15270E+00
 9.97500E+00   2.15171E+00   1.04885E+00   5.35745E-01   1.15277E+00
 1.00250E+01   2.15161E+00   1.04884E+00   5.35809E-01   1.15285E+00
 1.00750E+01   2.15153E+00   1.04884E+00   5.35874E-01   1.15295E+00
 1.01250E+01   2.15148E+00   1.04884E+00   5.35941E-01   1.15306E+00
 1.01750E+01   2.15144E+00   1.04884E+00   5.36008E-01   1.15319E+00
 1.02250E+01   2.15143E+00   1.04884E+00   5.36076E-01   1.15333E+00
 1.02750E+01   2.15144E+00   1.04884E+00   5.36145E-01   1.15348E+00
 1.03250E+01   2.15147E+00   1.04885E+00   5.36215E-01   1.15365E+00
 1.03750E+01   2.15152E+00   1.04885E+00   5.36285E-01   1.15383E+00
 1.04250E+01   2.15160E+00   1.04885E+00   5.36357E-01   1.15402E+00
 1.04750E+01   2.15169E+00   1.04886E+00   5.36429E-01   1.15423E+00
 1.05250E+01   2.15181E+00   1.04886E+00   5.36501E-01   1.15445E+00
 1.05750E+01   2.15195E+00   1.04887E+00   5.36575E-01   1.15468E+00
 1.06250E+01   2.15211E+00   1.04887E+00   5.36649E-01   1.15493E+00
 1.06750E+01   2.15229E+00   1.04888E+00   5.36723E-01   1.15518E+00
 1.07250E+01   2.15248E+00   1.04888E+00   5.36799E-01   1.15545E+00
 1.07750E+01   2.15270E+00   1.04889E+00   5.36874E-01   1.15573E+00
 1.08250E+01   2.15293E+00   1.04890E+00   5.36951E-01   1.15602E+00
 1.08750E+01   2.15318E+00   1.04891E+00   5.37027E-01   1.15632E+00
 1.09250E+01   2.15344E+00   1.04892E+00   5.37104E-01   1.15662E+00
 1.09750E+01   2.15372E+00   1.04893E+00   5.37181E-01   1.15694E+00
 1.10250E+01   2.15402E+00   1.04894E+00   5.37259E-01   1.15727E+00
 1.10750E+01   2.15432E+00   1.04895E+00   5.37337E-01   1.15760E+00
 1.11250E+01   2.15464E+00   1.04897E+00   5.37416E-01   1.15794E+00
 1.11750E+01   2.15497E+00   1.04898E+00   5.37494E-01   1.15828E+00
 1.12250E+01   2.15531E+00   1.04900E+00   5.37573E-01   1.15864E+00
 1.12750E+01   2.15565E+00   1.04901E+00   5.37652E-01   1.15899E+00
 1.13250E+01   2.15600E+00   1.04903E+00   5.37731E-01   1.15935E+00
 1.13750E+01   2.15636E+00   1.04905E+00   5.37809E-01   1.15971E+00
 1.14250E+01   2.15672E+00   1.04907E+00   5.37888E-01   1.16007E+00
 1.14750E+01   2.15708E+00   1.04909E+00   5.37965E-01   1.16044E+00
 1.15250E+01   2.15744E+00   1.04911E+00   5.38043E-01   1.16080E+00
 1.15750E+01   2.15780E+00   1.04914E+00   5.38119E-01   1.16115E+00
 1.16250E+01   2.15816E+00   1.04917E+00   5.38195E-01   1.16151E+00
 1.16750E+01   2.15851E+00   1.04920E+00   5.38270E-01   1.16186E+00
 1.17250E+01   2.15886E+00   1.04923E+00   5.38346E-01   1.16221E+00
 1.17750E+01   2.15920E+00   1.04927E+00   5.38421E-01   1.16256E+00
 1.18250E+01   2.15953E+00   1.04930E+00   5.38496E-01   1.16290E+00
 1.18750E+01   2.15986E+00   1.04934E+00   5.38571E-01   1.16324E+00
 1.19250E+01   2.16019E+00   1.04938E+00   5.38647E-01   1.16358E+00
 1.19750E+01   2.16050E+00   1.04942E+00   5.38723E-01   1.16391E+00
 1.20250E+01   2.16082E+00   1.04946E+00   5.38799E-01   1.16425E+00
 1.20750E+01   2.16112E+00   1.04950E+00   5.38877E-01   1.16458E+00
 1.21250E+01   2.16142E+00   1.04954E+00   5.38955E-01   1.16491E+00
 1.21750E+01   2.16172E+00   1.04958E+00   5.39034E-01   1.16524E+00
 1.22250E+01   2.16200E+00   1.04963E+00   5.39113E-01   1.16556E+00
 1.22750E+01   2.16227E+00   1.04967E+00   5.39194E-01   1.16588E+00
 1.23250E+01   2.16254E+00   1.04971E+00   5.39275E-01   1.16620E+00
 1.23750E+01   2.16279E+00   1.04974E+00   5.39357E-01   1.16652E+00
 1.24250E+01   2.16303E+00   1.04978E+00   5.39440E-01   1.16683E+00
 1.24750E+01   2.16326E+00   1.04982E+00   5.39525E-01   1.16713E+00
 1.25250E+01   2.16348E+00   1.04986E+00   5.39610E-01   1.16744E+00
 1.25750E+01   2.16369E+00   1.04990E+00   5.39696E-01   1.16774E+00
 1.26250E+01   2.16389E+00   1.04994E+00   5.39784E-01   1.16803E+00
 1.26750E+01   2.16407E+00   1.04997E+00   5.39873E-01   1.16832E+00
 1.27250E+01   2.16424E+00   1.05001E+00   5.39963E-01   1.16861E+00
 1.27750E+01   2.16440E+00   1.05004E+00   5.40054E-01   1.16889E+00
 1.28250E+01   2.16455E+00   1.05008E+00   5.40147E-01   1.16917E+00
 1.28750E+01   2.16468E+00   1.05011E+00   5.40241E-01   1.16945E+00
 1.29250E+01   2.16481E+00   1.05015E+00   5.40337E-01   1.16972E+00
 1.29750E+01   2.16492E+00   1.05018E+00   5.40435E-01   1.17000E+00
 1.30250E+01   2.16502E+00   1.05021E+00   5.40534E-01   1.17026E+00
 1.30750E+01   2.16511E+00   1.05025E+00   5.40634E-01   1.17053E+00
 1.31250E+01   2.16519E+00   1.05028E+00   5.40737E-01   1.17080E+00
 1.31750E+01   2.16526E+00   1.05031E+00   5.40841E-01   1.17106E+00
 1.32250E+01   2.16532E+00   1.05034E+00   5.40947E-01   1.17132E+00
 1.32750E+01   2.16538E+00   1.05038E+00   5.41055E-01   1.17159E+00
 1.33250E+01   2.16543E+00   1.05041E+00   5.41165E-01   1.17185E+00
 1.33750E+01   2.16547E+00   1.05044E+00   5.41277E-01   1.17212E+00
 1.34250E+01   2.16551E+00   1.05047E+00   5.41391E-01   1.17239E+00
 1.34750E+01   2.16555E+00   1.05051E+00   5.41507E-01   1.17266E+00
 1.35250E+01   2.16559E+00   1.05054E+00   5.41625E-01   1.17294E+00
 1.35750E+01   2.16562E+00   1.05057E+00   5.41746E-01   1.17322E+00
 1.36250E+01   2.16566E+00   1.05061E+00   5.41869E-01   1.17350E+00
 1.36750E+01   2.16570E+00   1.05064E+00   5.41995E-01   1.17380E+00
 1.37250E+01   2.16574E+00   1.05067E+00   5.42123E-01   1.17410E+00
 1.37750E+01   2.16578E+00   1.05071E+00   5.42254E-01   1.17440E+00
 1.38250E+01   2.16583E+00   1.05074E+00   5.42387E-01   1.17472E+00
 1.38750E+01   2.16589E+00   1.05078E+00   5.42524E-01   1.17505E+00
 1.39250E+01   2.16596E+00   1.05081E+00   5.42663E-01   1.17538E+00
 1.39750E+01   2.16603E+00   1.05085E+00   5.42805E-01   1.17573E+00
 1.40250E+01   2.16612E+00   1.05088E+00   5.42950E-01   1.17609E+00
 1.40750E+01   2.16621E+00   1.05092E+00   5.43098E-01   1.17647E+00
 1.41250E+01   2.16632E+00   1.05096E+00   5.43250E-01   1.17685E+00
 1.41750E+01   2.16644E+00   1.05100E+00   5.43404E-01   1.17725E+00
 1.42250E+01   2.16658E+00   1.05104E+00   5.43562E-01   1.17767E+00
 1.42750E+01   2.16673E+00   1.05108E+00   5.43724E-01   1.17810E+00
 1.43250E+01   2.16689E+00   1.05112E+00   5.43889E-01   1.17855E+00
 1.43750E+01   2.16708E+00   1.05116E+00   5.44058E-01   1.17902E+00
 1.44250E+01   2.16728E+00   1.05120E+00   5.44230E-01   1.17950E+00
 1.44750E+01   2.16750E+00   1.05125E+00   5.44406E-01   1.18000E+00
 1.45250E+01   2.16774E+00   1.05129E+00   5.44586E-01   1.18052E+00
 1.45750E+01   2.16799E+00   1.05134E+00   5.44770E-01   1.18106E+00
 1.46250E+01   2.16827E+00   1.05139E+00   5.44959E-01   1.18162E+00
 1.46750E+01   2.16857E+00   1.05143E+00   5.45151E-01   1.18220E+00
 1.47250E+01   2.16888E+00   1.05148E+00   5.45347E-01   1.18279E+00
 1.47750E+01   2.16922E+00   1.05153E+00   5.45547E-01   1.18341E+00
 1.48250E+01   2.16958E+00   1.05159E+00   5.45752E-01   1.18405E+00
 1.48750E+01   2.16996E+00   1.05164E+00   5.45961E-01   1.18471E+00
 1.49250E+01   2.17035E+00   1.05169E+00   5.46174E-01   1.18539E+00
 1.49750E+01   2.17077E+00   1.05175E+00   5.46391E-01   1.18609E+00
 1.50250E+01   2.17121E+00   1.05180E+00   5.46613E-01   1.18681E+00
 1.50750E+01   2.17167E+00   1.05186E+00   5.46839E-01   1.18755E+00
 1.51250E+01   2.17214E+00   1.05192E+00   5.47069E-01   1.18831E+00
 1.51750E+01   2.17264E+00   1.05198E+00   5.47304E-01   1.18909E+00
 1.52250E+01   2.17315E+00   1.05204E+00   5.47543E-01   1.18989E+00
 1.52750E+01   2.17369E+00   1.05210E+00   5.47786E-01   1.19071E+00
 1.53250E+01   2.17423E+00   1.05217E+00   5.48033E-01   1.19155E+00
