      xx/10.          rhoa          temp           vel      vel*rhoa
         [-]           [-]           [-]           [-]           [-]
 1.02500E+00   2.41764E+00   9.03746E-01   5.46269E-01   1.32068E+00
 1.07500E+00   2.40860E+00   9.07915E-01   5.46818E-01   1.31707E+00
 1.12500E+00   2.39734E+00   9.12750E-01   5.47828E-01   1.31333E+00
 1.17500E+00   2.38377E+00   9.18187E-01   5.49394E-01   1.30963E+00
 1.22500E+00   2.36811E+00   9.24103E-01   5.51565E-01   1.30617E+00
 1.27500E+00   2.35074E+00   9.30327E-01   5.54352E-01   1.30314E+00
 1.32500E+00   2.33217E+00   9.36654E-01   5.57732E-01   1.30073E+00
 1.37500E+00   2.31297E+00   9.42876E-01   5.61645E-01   1.29907E+00
 1.42500E+00   2.29366E+00   9.48814E-01   5.66006E-01   1.29823E+00
 1.47500E+00   2.27464E+00   9.54351E-01   5.70713E-01   1.29816E+00
 1.52500E+00   2.25618E+00   9.59421E-01   5.75660E-01   1.29879E+00
 1.57500E+00   2.23843E+00   9.64003E-01   5.80747E-01   1.29996E+00
 1.62500E+00   2.22141E+00   9.68123E-01   5.85881E-01   1.30148E+00
 1.67500E+00   2.20505E+00   9.71846E-01   5.90982E-01   1.30314E+00
 1.72500E+00   2.18916E+00   9.75261E-01   5.95982E-01   1.30470E+00
 1.77500E+00   2.17356E+00   9.78472E-01   6.00831E-01   1.30594E+00
 1.82500E+00   2.15801E+00   9.81583E-01   6.05492E-01   1.30666E+00
 1.87500E+00   2.14231E+00   9.84692E-01   6.09939E-01   1.30668E+00
 1.92500E+00   2.12631E+00   9.87875E-01   6.14157E-01   1.30589E+00
 1.97500E+00   2.10991E+00   9.91190E-01   6.18139E-01   1.30421E+00
 2.02500E+00   2.09308E+00   9.94661E-01   6.21880E-01   1.30164E+00
 2.07500E+00   2.07589E+00   9.98288E-01   6.25382E-01   1.29822E+00
 2.12500E+00   2.05847E+00   1.00204E+00   6.28643E-01   1.29404E+00
 2.17500E+00   2.04102E+00   1.00587E+00   6.31666E-01   1.28924E+00
 2.22500E+00   2.02377E+00   1.00970E+00   6.34447E-01   1.28398E+00
 2.27500E+00   2.00699E+00   1.01346E+00   6.36986E-01   1.27842E+00
 2.32500E+00   1.99092E+00   1.01708E+00   6.39282E-01   1.27276E+00
 2.37500E+00   1.97580E+00   1.02048E+00   6.41333E-01   1.26715E+00
 2.42500E+00   1.96181E+00   1.02361E+00   6.43143E-01   1.26172E+00
 2.47500E+00   1.94909E+00   1.02642E+00   6.44716E-01   1.25661E+00
 2.52500E+00   1.93772E+00   1.02891E+00   6.46062E-01   1.25189E+00
 2.57500E+00   1.92772E+00   1.03105E+00   6.47194E-01   1.24761E+00
 2.62500E+00   1.91905E+00   1.03286E+00   6.48129E-01   1.24379E+00
 2.67500E+00   1.91165E+00   1.03437E+00   6.48887E-01   1.24044E+00
 2.72500E+00   1.90542E+00   1.03561E+00   6.49490E-01   1.23755E+00
 2.77500E+00   1.90023E+00   1.03660E+00   6.49961E-01   1.23508E+00
 2.82500E+00   1.89598E+00   1.03739E+00   6.50320E-01   1.23299E+00
 2.87500E+00   1.89253E+00   1.03800E+00   6.50590E-01   1.23126E+00
 2.92500E+00   1.88976E+00   1.03848E+00   6.50789E-01   1.22984E+00
 2.97500E+00   1.88758E+00   1.03884E+00   6.50934E-01   1.22869E+00
 3.02500E+00   1.88589E+00   1.03911E+00   6.51039E-01   1.22779E+00
 3.07500E+00   1.88460E+00   1.03932E+00   6.51117E-01   1.22710E+00
 3.12500E+00   1.88366E+00   1.03947E+00   6.51177E-01   1.22660E+00
 3.17500E+00   1.88300E+00   1.03959E+00   6.51226E-01   1.22626E+00
 3.22500E+00   1.88258E+00   1.03967E+00   6.51271E-01   1.22607E+00
 3.27500E+00   1.88236E+00   1.03974E+00   6.51317E-01   1.22601E+00
 3.32500E+00   1.88231E+00   1.03979E+00   6.51366E-01   1.22607E+00
 3.37500E+00   1.88240E+00   1.03983E+00   6.51421E-01   1.22624E+00
 3.42500E+00   1.88262E+00   1.03986E+00   6.51484E-01   1.22650E+00
 3.47500E+00   1.88294E+00   1.03988E+00   6.51556E-01   1.22684E+00
 3.52500E+00   1.88335E+00   1.03991E+00   6.51638E-01   1.22726E+00
 3.57500E+00   1.88383E+00   1.03993E+00   6.51728E-01   1.22775E+00
 3.62500E+00   1.88438E+00   1.03995E+00   6.51829E-01   1.22829E+00
 3.67500E+00   1.88498E+00   1.03997E+00   6.51939E-01   1.22889E+00
 3.72500E+00   1.88562E+00   1.03999E+00   6.52058E-01   1.22953E+00
 3.77500E+00   1.88628E+00   1.04001E+00   6.52186E-01   1.23021E+00
 3.82500E+00   1.88697E+00   1.04003E+00   6.52323E-01   1.23092E+00
 3.87500E+00   1.88767E+00   1.04005E+00   6.52468E-01   1.23164E+00
 3.92500E+00   1.88836E+00   1.04006E+00   6.52621E-01   1.23238E+00
 3.97500E+00   1.88905E+00   1.04008E+00   6.52781E-01   1.23313E+00
 4.02500E+00   1.88971E+00   1.04009E+00   6.52948E-01   1.23388E+00
 4.07500E+00   1.89034E+00   1.04011E+00   6.53122E-01   1.23462E+00
 4.12500E+00   1.89094E+00   1.04012E+00   6.53302E-01   1.23535E+00
 4.17500E+00   1.89149E+00   1.04013E+00   6.53488E-01   1.23607E+00
 4.22500E+00   1.89199E+00   1.04014E+00   6.53680E-01   1.23676E+00
 4.27500E+00   1.89244E+00   1.04015E+00   6.53877E-01   1.23742E+00
 4.32500E+00   1.89283E+00   1.04015E+00   6.54080E-01   1.23806E+00
 4.37500E+00   1.89316E+00   1.04016E+00   6.54287E-01   1.23867E+00
 4.42500E+00   1.89343E+00   1.04016E+00   6.54500E-01   1.23925E+00
 4.47500E+00   1.89364E+00   1.04016E+00   6.54717E-01   1.23980E+00
 4.52500E+00   1.89380E+00   1.04016E+00   6.54939E-01   1.24032E+00
 4.57500E+00   1.89391E+00   1.04016E+00   6.55165E-01   1.24082E+00
 4.62500E+00   1.89397E+00   1.04016E+00   6.55396E-01   1.24130E+00
 4.67500E+00   1.89399E+00   1.04016E+00   6.55631E-01   1.24176E+00
 4.72500E+00   1.89398E+00   1.04015E+00   6.55870E-01   1.24221E+00
 4.77500E+00   1.89395E+00   1.04015E+00   6.56114E-01   1.24265E+00
 4.82500E+00   1.89391E+00   1.04015E+00   6.56362E-01   1.24309E+00
 4.87500E+00   1.89386E+00   1.04015E+00   6.56614E-01   1.24353E+00
 4.92500E+00   1.89381E+00   1.04015E+00   6.56871E-01   1.24399E+00
 4.97500E+00   1.89378E+00   1.04016E+00   6.57132E-01   1.24446E+00
 5.02500E+00   1.89376E+00   1.04016E+00   6.57397E-01   1.24495E+00
 5.07500E+00   1.89377E+00   1.04017E+00   6.57667E-01   1.24547E+00
 5.12500E+00   1.89382E+00   1.04017E+00   6.57941E-01   1.24602E+00
 5.17500E+00   1.89390E+00   1.04018E+00   6.58219E-01   1.24660E+00
 5.22500E+00   1.89403E+00   1.04020E+00   6.58502E-01   1.24722E+00
 5.27500E+00   1.89420E+00   1.04021E+00   6.58788E-01   1.24788E+00
 5.32500E+00   1.89442E+00   1.04023E+00   6.59078E-01   1.24857E+00
 5.37500E+00   1.89469E+00   1.04026E+00   6.59370E-01   1.24930E+00
 5.42500E+00   1.89500E+00   1.04029E+00   6.59665E-01   1.25006E+00
 5.47500E+00   1.89535E+00   1.04033E+00   6.59961E-01   1.25086E+00
 5.52500E+00   1.89574E+00   1.04037E+00   6.60258E-01   1.25168E+00
 5.57500E+00   1.89616E+00   1.04043E+00   6.60555E-01   1.25252E+00
 5.62500E+00   1.89661E+00   1.04050E+00   6.60852E-01   1.25338E+00
 5.67500E+00   1.89708E+00   1.04058E+00   6.61151E-01   1.25426E+00
 5.72500E+00   1.89758E+00   1.04068E+00   6.61453E-01   1.25516E+00
 5.77500E+00   1.89811E+00   1.04079E+00   6.61758E-01   1.25609E+00
 5.82500E+00   1.89868E+00   1.04090E+00   6.62067E-01   1.25705E+00
 5.87500E+00   1.89928E+00   1.04103E+00   6.62381E-01   1.25804E+00
 5.92500E+00   1.89990E+00   1.04116E+00   6.62700E-01   1.25906E+00
 5.97500E+00   1.90056E+00   1.04129E+00   6.63024E-01   1.26012E+00
 6.02500E+00   1.90124E+00   1.04143E+00   6.63354E-01   1.26119E+00
 6.07500E+00   1.90194E+00   1.04157E+00   6.63690E-01   1.26230E+00
 6.12500E+00   1.90266E+00   1.04171E+00   6.64031E-01   1.26342E+00
 6.17500E+00   1.90339E+00   1.04186E+00   6.64377E-01   1.26457E+00
 6.22500E+00   1.90413E+00   1.04200E+00   6.64729E-01   1.26573E+00
 6.27500E+00   1.90488E+00   1.04214E+00   6.65086E-01   1.26691E+00
 6.32500E+00   1.90562E+00   1.04229E+00   6.65448E-01   1.26809E+00
 6.37500E+00   1.90636E+00   1.04243E+00   6.65814E-01   1.26928E+00
 6.42500E+00   1.90709E+00   1.04257E+00   6.66183E-01   1.27047E+00
 6.47500E+00   1.90781E+00   1.04271E+00   6.66555E-01   1.27166E+00
 6.52500E+00   1.90851E+00   1.04284E+00   6.66929E-01   1.27284E+00
 6.57500E+00   1.90918E+00   1.04298E+00   6.67303E-01   1.27400E+00
 6.62500E+00   1.90983E+00   1.04311E+00   6.67676E-01   1.27515E+00
 6.67500E+00   1.91045E+00   1.04324E+00   6.68047E-01   1.27627E+00
 6.72500E+00   1.91103E+00   1.04336E+00   6.68415E-01   1.27736E+00
 6.77500E+00   1.91158E+00   1.04348E+00   6.68777E-01   1.27842E+00
 6.82500E+00   1.91209E+00   1.04360E+00   6.69131E-01   1.27944E+00
 6.87500E+00   1.91255E+00   1.04371E+00   6.69476E-01   1.28041E+00
 6.92500E+00   1.91297E+00   1.04382E+00   6.69810E-01   1.28133E+00
 6.97500E+00   1.91335E+00   1.04392E+00   6.70130E-01   1.28219E+00
 7.02500E+00   1.91367E+00   1.04402E+00   6.70435E-01   1.28299E+00
 7.07500E+00   1.91395E+00   1.04411E+00   6.70722E-01   1.28372E+00
 7.12500E+00   1.91417E+00   1.04420E+00   6.70988E-01   1.28438E+00
 7.17500E+00   1.91434E+00   1.04427E+00   6.71232E-01   1.28497E+00
 7.22500E+00   1.91446E+00   1.04434E+00   6.71451E-01   1.28547E+00
 7.27500E+00   1.91453E+00   1.04441E+00   6.71643E-01   1.28588E+00
 7.32500E+00   1.91454E+00   1.04446E+00   6.71807E-01   1.28620E+00
 7.37500E+00   1.91450E+00   1.04451E+00   6.71939E-01   1.28643E+00
 7.42500E+00   1.91441E+00   1.04454E+00   6.72038E-01   1.28656E+00
 7.47500E+00   1.91427E+00   1.04457E+00   6.72102E-01   1.28658E+00
 7.52500E+00   1.91407E+00   1.04459E+00   6.72131E-01   1.28651E+00
 7.57500E+00   1.91383E+00   1.04460E+00   6.72122E-01   1.28633E+00
 7.62500E+00   1.91353E+00   1.04459E+00   6.72075E-01   1.28604E+00
 7.67500E+00   1.91319E+00   1.04458E+00   6.71988E-01   1.28564E+00
 7.72500E+00   1.91280E+00   1.04456E+00   6.71862E-01   1.28514E+00
 7.77500E+00   1.91237E+00   1.04452E+00   6.71697E-01   1.28453E+00
 7.82500E+00   1.91189E+00   1.04448E+00   6.71493E-01   1.28382E+00
 7.87500E+00   1.91137E+00   1.04443E+00   6.71250E-01   1.28301E+00
 7.92500E+00   1.91082E+00   1.04436E+00   6.70969E-01   1.28210E+00
 7.97500E+00   1.91023E+00   1.04429E+00   6.70652E-01   1.28110E+00
 8.02500E+00   1.90960E+00   1.04421E+00   6.70300E-01   1.28000E+00
 8.07500E+00   1.90894E+00   1.04411E+00   6.69915E-01   1.27883E+00
 8.12500E+00   1.90825E+00   1.04401E+00   6.69499E-01   1.27758E+00
 8.17500E+00   1.90754E+00   1.04391E+00   6.69055E-01   1.27625E+00
 8.22500E+00   1.90681E+00   1.04379E+00   6.68585E-01   1.27486E+00
 8.27500E+00   1.90605E+00   1.04367E+00   6.68091E-01   1.27341E+00
 8.32500E+00   1.90528E+00   1.04354E+00   6.67577E-01   1.27192E+00
 8.37500E+00   1.90449E+00   1.04341E+00   6.67046E-01   1.27038E+00
 8.42500E+00   1.90369E+00   1.04327E+00   6.66501E-01   1.26881E+00
 8.47500E+00   1.90288E+00   1.04313E+00   6.65945E-01   1.26721E+00
 8.52500E+00   1.90207E+00   1.04298E+00   6.65381E-01   1.26560E+00
 8.57500E+00   1.90126E+00   1.04283E+00   6.64813E-01   1.26398E+00
 8.62500E+00   1.90044E+00   1.04269E+00   6.64243E-01   1.26236E+00
 8.67500E+00   1.89963E+00   1.04254E+00   6.63675E-01   1.26074E+00
 8.72500E+00   1.89883E+00   1.04239E+00   6.63112E-01   1.25914E+00
 8.77500E+00   1.89804E+00   1.04225E+00   6.62557E-01   1.25756E+00
 8.82500E+00   1.89725E+00   1.04210E+00   6.62011E-01   1.25600E+00
 8.87500E+00   1.89649E+00   1.04196E+00   6.61478E-01   1.25448E+00
 8.92500E+00   1.89573E+00   1.04182E+00   6.60959E-01   1.25300E+00
 8.97500E+00   1.89500E+00   1.04168E+00   6.60457E-01   1.25157E+00
 9.02500E+00   1.89429E+00   1.04155E+00   6.59974E-01   1.25018E+00
 9.07500E+00   1.89359E+00   1.04143E+00   6.59511E-01   1.24885E+00
 9.12500E+00   1.89293E+00   1.04130E+00   6.59069E-01   1.24757E+00
 9.17500E+00   1.89229E+00   1.04119E+00   6.58649E-01   1.24635E+00
 9.22500E+00   1.89167E+00   1.04108E+00   6.58254E-01   1.24520E+00
 9.27500E+00   1.89108E+00   1.04097E+00   6.57882E-01   1.24411E+00
 9.32500E+00   1.89052E+00   1.04087E+00   6.57535E-01   1.24308E+00
 9.37500E+00   1.88999E+00   1.04078E+00   6.57214E-01   1.24213E+00
 9.42500E+00   1.88950E+00   1.04069E+00   6.56918E-01   1.24124E+00
 9.47500E+00   1.88903E+00   1.04061E+00   6.56648E-01   1.24043E+00
 9.52500E+00   1.88860E+00   1.04054E+00   6.56403E-01   1.23968E+00
 9.57500E+00   1.88820E+00   1.04048E+00   6.56184E-01   1.23901E+00
 9.62500E+00   1.88784E+00   1.04042E+00   6.55989E-01   1.23840E+00
 9.67500E+00   1.88751E+00   1.04036E+00   6.55819E-01   1.23787E+00
 9.72500E+00   1.88722E+00   1.04032E+00   6.55673E-01   1.23740E+00
 9.77500E+00   1.88696E+00   1.04028E+00   6.55550E-01   1.23700E+00
 9.82500E+00   1.88674E+00   1.04024E+00   6.55449E-01   1.23666E+00
 9.87500E+00   1.88654E+00   1.04022E+00   6.55369E-01   1.23638E+00
 9.92500E+00   1.88639E+00   1.04019E+00   6.55309E-01   1.23617E+00
 9.97500E+00   1.88626E+00   1.04018E+00   6.55269E-01   1.23601E+00
 1.00250E+01   1.88617E+00   1.04017E+00   6.55246E-01   1.23590E+00
 1.00750E+01   1.88610E+00   1.04016E+00   6.55240E-01   1.23585E+00
 1.01250E+01   1.88607E+00   1.04016E+00   6.55249E-01   1.23584E+00
 1.01750E+01   1.88606E+00   1.04016E+00   6.55272E-01   1.23588E+00
 1.02250E+01   1.88608E+00   1.04017E+00   6.55308E-01   1.23597E+00
 1.02750E+01   1.88613E+00   1.04018E+00   6.55357E-01   1.23609E+00
 1.03250E+01   1.88621E+00   1.04019E+00   6.55416E-01   1.23625E+00
 1.03750E+01   1.88631E+00   1.04021E+00   6.55485E-01   1.23645E+00
 1.04250E+01   1.88643E+00   1.04023E+00   6.55564E-01   1.23668E+00
 1.04750E+01   1.88658E+00   1.04025E+00   6.55651E-01   1.23694E+00
 1.05250E+01   1.88674E+00   1.04027E+00   6.55747E-01   1.23723E+00
 1.05750E+01   1.88693E+00   1.04030E+00   6.55850E-01   1.23754E+00
 1.06250E+01   1.88714E+00   1.04033E+00   6.55961E-01   1.23789E+00
 1.06750E+01   1.88736E+00   1.04036E+00   6.56078E-01   1.23826E+00
 1.07250E+01   1.88760E+00   1.04039E+00   6.56202E-01   1.23865E+00
 1.07750E+01   1.88786E+00   1.04042E+00   6.56332E-01   1.23906E+00
 1.08250E+01   1.88813E+00   1.04046E+00   6.56468E-01   1.23950E+00
 1.08750E+01   1.88842E+00   1.04049E+00   6.56610E-01   1.23995E+00
 1.09250E+01   1.88871E+00   1.04053E+00   6.56757E-01   1.24042E+00
 1.09750E+01   1.88902E+00   1.04057E+00   6.56911E-01   1.24092E+00
 1.10250E+01   1.88934E+00   1.04061E+00   6.57069E-01   1.24142E+00
 1.10750E+01   1.88966E+00   1.04065E+00   6.57233E-01   1.24195E+00
 1.11250E+01   1.88999E+00   1.04069E+00   6.57401E-01   1.24248E+00
 1.11750E+01   1.89033E+00   1.04074E+00   6.57575E-01   1.24303E+00
 1.12250E+01   1.89068E+00   1.04078E+00   6.57754E-01   1.24360E+00
 1.12750E+01   1.89103E+00   1.04083E+00   6.57937E-01   1.24418E+00
 1.13250E+01   1.89138E+00   1.04087E+00   6.58126E-01   1.24477E+00
 1.13750E+01   1.89174E+00   1.04092E+00   6.58319E-01   1.24537E+00
 1.14250E+01   1.89210E+00   1.04097E+00   6.58518E-01   1.24598E+00
 1.14750E+01   1.89246E+00   1.04102E+00   6.58721E-01   1.24660E+00
 1.15250E+01   1.89283E+00   1.04107E+00   6.58929E-01   1.24724E+00
 1.15750E+01   1.89320E+00   1.04113E+00   6.59142E-01   1.24789E+00
 1.16250E+01   1.89357E+00   1.04118E+00   6.59359E-01   1.24854E+00
 1.16750E+01   1.89394E+00   1.04124E+00   6.59582E-01   1.24921E+00
 1.17250E+01   1.89431E+00   1.04129E+00   6.59809E-01   1.24988E+00
 1.17750E+01   1.89469E+00   1.04135E+00   6.60040E-01   1.25057E+00
 1.18250E+01   1.89507E+00   1.04141E+00   6.60276E-01   1.25127E+00
 1.18750E+01   1.89545E+00   1.04147E+00   6.60517E-01   1.25198E+00
 1.19250E+01   1.89583E+00   1.04153E+00   6.60762E-01   1.25269E+00
 1.19750E+01   1.89622E+00   1.04159E+00   6.61011E-01   1.25342E+00
 1.20250E+01   1.89661E+00   1.04166E+00   6.61265E-01   1.25416E+00
 1.20750E+01   1.89700E+00   1.04172E+00   6.61523E-01   1.25491E+00
 1.21250E+01   1.89740E+00   1.04179E+00   6.61784E-01   1.25567E+00
 1.21750E+01   1.89780E+00   1.04185E+00   6.62050E-01   1.25644E+00
 1.22250E+01   1.89821E+00   1.04192E+00   6.62318E-01   1.25722E+00
 1.22750E+01   1.89862E+00   1.04199E+00   6.62590E-01   1.25801E+00
 1.23250E+01   1.89904E+00   1.04206E+00   6.62865E-01   1.25881E+00
 1.23750E+01   1.89946E+00   1.04213E+00   6.63143E-01   1.25962E+00
 1.24250E+01   1.89989E+00   1.04220E+00   6.63423E-01   1.26043E+00
 1.24750E+01   1.90032E+00   1.04227E+00   6.63705E-01   1.26125E+00
 1.25250E+01   1.90076E+00   1.04235E+00   6.63988E-01   1.26208E+00
 1.25750E+01   1.90120E+00   1.04242E+00   6.64273E-01   1.26292E+00
 1.26250E+01   1.90164E+00   1.04249E+00   6.64558E-01   1.26375E+00
 1.26750E+01   1.90209E+00   1.04256E+00   6.64843E-01   1.26459E+00
 1.27250E+01   1.90254E+00   1.04264E+00   6.65127E-01   1.26543E+00
 1.27750E+01   1.90299E+00   1.04271E+00   6.65409E-01   1.26627E+00
 1.28250E+01   1.90344E+00   1.04278E+00   6.65690E-01   1.26710E+00
 1.28750E+01   1.90388E+00   1.04286E+00   6.65968E-01   1.26792E+00
 1.29250E+01   1.90433E+00   1.04293E+00   6.66242E-01   1.26874E+00
 1.29750E+01   1.90477E+00   1.04300E+00   6.66512E-01   1.26955E+00
 1.30250E+01   1.90520E+00   1.04307E+00   6.66776E-01   1.27034E+00
 1.30750E+01   1.90563E+00   1.04314E+00   6.67035E-01   1.27112E+00
 1.31250E+01   1.90605E+00   1.04320E+00   6.67286E-01   1.27188E+00
 1.31750E+01   1.90645E+00   1.04327E+00   6.67530E-01   1.27261E+00
 1.32250E+01   1.90685E+00   1.04333E+00   6.67765E-01   1.27332E+00
 1.32750E+01   1.90722E+00   1.04339E+00   6.67990E-01   1.27401E+00
 1.33250E+01   1.90758E+00   1.04345E+00   6.68204E-01   1.27466E+00
 1.33750E+01   1.90793E+00   1.04350E+00   6.68406E-01   1.27527E+00
 1.34250E+01   1.90825E+00   1.04356E+00   6.68596E-01   1.27585E+00
 1.34750E+01   1.90854E+00   1.04361E+00   6.68772E-01   1.27638E+00
 1.35250E+01   1.90881E+00   1.04365E+00   6.68933E-01   1.27687E+00
 1.35750E+01   1.90906E+00   1.04369E+00   6.69078E-01   1.27731E+00
 1.36250E+01   1.90927E+00   1.04373E+00   6.69207E-01   1.27770E+00
 1.36750E+01   1.90946E+00   1.04377E+00   6.69318E-01   1.27803E+00
 1.37250E+01   1.90961E+00   1.04380E+00   6.69411E-01   1.27831E+00
 1.37750E+01   1.90973E+00   1.04382E+00   6.69486E-01   1.27854E+00
 1.38250E+01   1.90981E+00   1.04384E+00   6.69540E-01   1.27870E+00
 1.38750E+01   1.90986E+00   1.04385E+00   6.69575E-01   1.27879E+00
 1.39250E+01   1.90987E+00   1.04386E+00   6.69588E-01   1.27883E+00
 1.39750E+01   1.90984E+00   1.04387E+00   6.69581E-01   1.27879E+00
 1.40250E+01   1.90978E+00   1.04387E+00   6.69551E-01   1.27869E+00
 1.40750E+01   1.90967E+00   1.04386E+00   6.69500E-01   1.27853E+00
 1.41250E+01   1.90953E+00   1.04385E+00   6.69427E-01   1.27829E+00
 1.41750E+01   1.90934E+00   1.04383E+00   6.69332E-01   1.27798E+00
 1.42250E+01   1.90912E+00   1.04380E+00   6.69214E-01   1.27761E+00
 1.42750E+01   1.90886E+00   1.04377E+00   6.69075E-01   1.27717E+00
 1.43250E+01   1.90856E+00   1.04374E+00   6.68914E-01   1.27666E+00
 1.43750E+01   1.90823E+00   1.04370E+00   6.68732E-01   1.27609E+00
 1.44250E+01   1.90786E+00   1.04365E+00   6.68529E-01   1.27546E+00
 1.44750E+01   1.90746E+00   1.04360E+00   6.68307E-01   1.27477E+00
 1.45250E+01   1.90703E+00   1.04354E+00   6.68065E-01   1.27402E+00
 1.45750E+01   1.90656E+00   1.04348E+00   6.67805E-01   1.27321E+00
 1.46250E+01   1.90607E+00   1.04341E+00   6.67527E-01   1.27236E+00
 1.46750E+01   1.90556E+00   1.04334E+00   6.67233E-01   1.27145E+00
 1.47250E+01   1.90502E+00   1.04327E+00   6.66925E-01   1.27050E+00
 1.47750E+01   1.90446E+00   1.04319E+00   6.66602E-01   1.26952E+00
 1.48250E+01   1.90388E+00   1.04311E+00   6.66267E-01   1.26849E+00
 1.48750E+01   1.90329E+00   1.04302E+00   6.65921E-01   1.26744E+00
 1.49250E+01   1.90268E+00   1.04293E+00   6.65566E-01   1.26636E+00
 1.49750E+01   1.90206E+00   1.04284E+00   6.65202E-01   1.26525E+00
 1.50250E+01   1.90144E+00   1.04275E+00   6.64831E-01   1.26413E+00
 1.50750E+01   1.90080E+00   1.04265E+00   6.64456E-01   1.26300E+00
 1.51250E+01   1.90017E+00   1.04256E+00   6.64077E-01   1.26186E+00
 1.51750E+01   1.89954E+00   1.04246E+00   6.63695E-01   1.26071E+00
 1.52250E+01   1.89891E+00   1.04236E+00   6.63313E-01   1.25957E+00
 1.52750E+01   1.89828E+00   1.04226E+00   6.62932E-01   1.25843E+00
 1.53250E+01   1.89766E+00   1.04217E+00   6.62554E-01   1.25730E+00
