      xx/10.          rhoa          temp           vel      vel*rhoa
         [-]           [-]           [-]           [-]           [-]
 1.02500E+00   2.59596E+00   9.20836E-01   4.82057E-01   1.25140E+00
 1.07500E+00   2.59490E+00   9.21344E-01   4.82164E-01   1.25117E+00
 1.12500E+00   2.59307E+00   9.21921E-01   4.82460E-01   1.25105E+00
 1.17500E+00   2.59066E+00   9.22581E-01   4.82884E-01   1.25099E+00
 1.22500E+00   2.58779E+00   9.23330E-01   4.83400E-01   1.25094E+00
 1.27500E+00   2.58452E+00   9.24167E-01   4.83990E-01   1.25088E+00
 1.32500E+00   2.58093E+00   9.25084E-01   4.84645E-01   1.25083E+00
 1.37500E+00   2.57706E+00   9.26069E-01   4.85358E-01   1.25080E+00
 1.42500E+00   2.57296E+00   9.27109E-01   4.86127E-01   1.25079E+00
 1.47500E+00   2.56869E+00   9.28187E-01   4.86948E-01   1.25082E+00
 1.52500E+00   2.56428E+00   9.29287E-01   4.87818E-01   1.25090E+00
 1.57500E+00   2.55978E+00   9.30395E-01   4.88731E-01   1.25105E+00
 1.62500E+00   2.55525E+00   9.31498E-01   4.89682E-01   1.25126E+00
 1.67500E+00   2.55070E+00   9.32587E-01   4.90664E-01   1.25153E+00
 1.72500E+00   2.54615E+00   9.33656E-01   4.91671E-01   1.25187E+00
 1.77500E+00   2.54164E+00   9.34703E-01   4.92695E-01   1.25225E+00
 1.82500E+00   2.53714E+00   9.35729E-01   4.93730E-01   1.25266E+00
 1.87500E+00   2.53266E+00   9.36740E-01   4.94770E-01   1.25309E+00
 1.92500E+00   2.52818E+00   9.37745E-01   4.95807E-01   1.25349E+00
 1.97500E+00   2.52366E+00   9.38756E-01   4.96839E-01   1.25385E+00
 2.02500E+00   2.51907E+00   9.39788E-01   4.97859E-01   1.25414E+00
 2.07500E+00   2.51435E+00   9.40860E-01   4.98867E-01   1.25433E+00
 2.12500E+00   2.50945E+00   9.41992E-01   4.99859E-01   1.25437E+00
 2.17500E+00   2.50431E+00   9.43205E-01   5.00835E-01   1.25425E+00
 2.22500E+00   2.49886E+00   9.44521E-01   5.01795E-01   1.25392E+00
 2.27500E+00   2.49305E+00   9.45962E-01   5.02742E-01   1.25336E+00
 2.32500E+00   2.48680E+00   9.47550E-01   5.03676E-01   1.25254E+00
 2.37500E+00   2.48005E+00   9.49305E-01   5.04603E-01   1.25144E+00
 2.42500E+00   2.47276E+00   9.51244E-01   5.05523E-01   1.25004E+00
 2.47500E+00   2.46487E+00   9.53384E-01   5.06443E-01   1.24832E+00
 2.52500E+00   2.45635E+00   9.55736E-01   5.07367E-01   1.24627E+00
 2.57500E+00   2.44716E+00   9.58310E-01   5.08297E-01   1.24389E+00
 2.62500E+00   2.43731E+00   9.61110E-01   5.09239E-01   1.24117E+00
 2.67500E+00   2.42678E+00   9.64134E-01   5.10196E-01   1.23814E+00
 2.72500E+00   2.41560E+00   9.67378E-01   5.11171E-01   1.23478E+00
 2.77500E+00   2.40379E+00   9.70832E-01   5.12167E-01   1.23114E+00
 2.82500E+00   2.39141E+00   9.74479E-01   5.13183E-01   1.22723E+00
 2.87500E+00   2.37852E+00   9.78298E-01   5.14222E-01   1.22309E+00
 2.92500E+00   2.36520E+00   9.82263E-01   5.15280E-01   1.21874E+00
 2.97500E+00   2.35155E+00   9.86343E-01   5.16358E-01   1.21424E+00
 3.02500E+00   2.33768E+00   9.90501E-01   5.17451E-01   1.20963E+00
 3.07500E+00   2.32370E+00   9.94701E-01   5.18554E-01   1.20496E+00
 3.12500E+00   2.30975E+00   9.98900E-01   5.19662E-01   1.20029E+00
 3.17500E+00   2.29594E+00   1.00306E+00   5.20769E-01   1.19566E+00
 3.22500E+00   2.28241E+00   1.00713E+00   5.21867E-01   1.19111E+00
 3.27500E+00   2.26927E+00   1.01109E+00   5.22948E-01   1.18671E+00
 3.32500E+00   2.25663E+00   1.01488E+00   5.24005E-01   1.18249E+00
 3.37500E+00   2.24460E+00   1.01849E+00   5.25029E-01   1.17848E+00
 3.42500E+00   2.23324E+00   1.02189E+00   5.26014E-01   1.17471E+00
 3.47500E+00   2.22262E+00   1.02505E+00   5.26952E-01   1.17122E+00
 3.52500E+00   2.21279E+00   1.02797E+00   5.27840E-01   1.16800E+00
 3.57500E+00   2.20376E+00   1.03064E+00   5.28673E-01   1.16507E+00
 3.62500E+00   2.19555E+00   1.03305E+00   5.29449E-01   1.16243E+00
 3.67500E+00   2.18813E+00   1.03521E+00   5.30165E-01   1.16007E+00
 3.72500E+00   2.18150E+00   1.03714E+00   5.30822E-01   1.15799E+00
 3.77500E+00   2.17561E+00   1.03884E+00   5.31421E-01   1.15617E+00
 3.82500E+00   2.17042E+00   1.04033E+00   5.31964E-01   1.15459E+00
 3.87500E+00   2.16588E+00   1.04162E+00   5.32455E-01   1.15323E+00
 3.92500E+00   2.16194E+00   1.04273E+00   5.32896E-01   1.15209E+00
 3.97500E+00   2.15853E+00   1.04369E+00   5.33292E-01   1.15113E+00
 4.02500E+00   2.15561E+00   1.04450E+00   5.33647E-01   1.15034E+00
 4.07500E+00   2.15313E+00   1.04519E+00   5.33964E-01   1.14969E+00
 4.12500E+00   2.15102E+00   1.04577E+00   5.34249E-01   1.14918E+00
 4.17500E+00   2.14925E+00   1.04625E+00   5.34505E-01   1.14878E+00
 4.22500E+00   2.14777E+00   1.04666E+00   5.34735E-01   1.14849E+00
 4.27500E+00   2.14654E+00   1.04700E+00   5.34943E-01   1.14828E+00
 4.32500E+00   2.14553E+00   1.04727E+00   5.35132E-01   1.14814E+00
 4.37500E+00   2.14471E+00   1.04751E+00   5.35305E-01   1.14808E+00
 4.42500E+00   2.14406E+00   1.04770E+00   5.35463E-01   1.14806E+00
 4.47500E+00   2.14354E+00   1.04785E+00   5.35610E-01   1.14810E+00
 4.52500E+00   2.14315E+00   1.04798E+00   5.35747E-01   1.14819E+00
 4.57500E+00   2.14286E+00   1.04809E+00   5.35875E-01   1.14831E+00
 4.62500E+00   2.14266E+00   1.04818E+00   5.35997E-01   1.14846E+00
 4.67500E+00   2.14254E+00   1.04825E+00   5.36113E-01   1.14864E+00
 4.72500E+00   2.14249E+00   1.04831E+00   5.36224E-01   1.14886E+00
 4.77500E+00   2.14251E+00   1.04836E+00   5.36331E-01   1.14909E+00
 4.82500E+00   2.14258E+00   1.04840E+00   5.36434E-01   1.14935E+00
 4.87500E+00   2.14270E+00   1.04844E+00   5.36535E-01   1.14963E+00
 4.92500E+00   2.14287E+00   1.04847E+00   5.36633E-01   1.14993E+00
 4.97500E+00   2.14308E+00   1.04850E+00   5.36729E-01   1.15025E+00
 5.02500E+00   2.14333E+00   1.04852E+00   5.36823E-01   1.15059E+00
 5.07500E+00   2.14362E+00   1.04855E+00   5.36916E-01   1.15095E+00
 5.12500E+00   2.14395E+00   1.04857E+00   5.37008E-01   1.15132E+00
 5.17500E+00   2.14432E+00   1.04859E+00   5.37099E-01   1.15171E+00
 5.22500E+00   2.14472E+00   1.04860E+00   5.37189E-01   1.15212E+00
 5.27500E+00   2.14515E+00   1.04862E+00   5.37278E-01   1.15254E+00
 5.32500E+00   2.14561E+00   1.04864E+00   5.37367E-01   1.15298E+00
 5.37500E+00   2.14610E+00   1.04866E+00   5.37454E-01   1.15343E+00
 5.42500E+00   2.14662E+00   1.04868E+00   5.37542E-01   1.15390E+00
 5.47500E+00   2.14717E+00   1.04869E+00   5.37629E-01   1.15438E+00
 5.52500E+00   2.14775E+00   1.04871E+00   5.37716E-01   1.15488E+00
 5.57500E+00   2.14834E+00   1.04873E+00   5.37802E-01   1.15538E+00
 5.62500E+00   2.14896E+00   1.04874E+00   5.37888E-01   1.15590E+00
 5.67500E+00   2.14960E+00   1.04876E+00   5.37974E-01   1.15643E+00
 5.72500E+00   2.15026E+00   1.04878E+00   5.38060E-01   1.15697E+00
 5.77500E+00   2.15092E+00   1.04879E+00   5.38146E-01   1.15751E+00
 5.82500E+00   2.15160E+00   1.04881E+00   5.38232E-01   1.15806E+00
 5.87500E+00   2.15228E+00   1.04882E+00   5.38318E-01   1.15861E+00
 5.92500E+00   2.15297E+00   1.04884E+00   5.38404E-01   1.15917E+00
 5.97500E+00   2.15366E+00   1.04885E+00   5.38490E-01   1.15972E+00
 6.02500E+00   2.15434E+00   1.04886E+00   5.38576E-01   1.16027E+00
 6.07500E+00   2.15501E+00   1.04887E+00   5.38662E-01   1.16082E+00
 6.12500E+00   2.15566E+00   1.04889E+00   5.38748E-01   1.16136E+00
 6.17500E+00   2.15630E+00   1.04890E+00   5.38835E-01   1.16189E+00
 6.22500E+00   2.15692E+00   1.04890E+00   5.38922E-01   1.16241E+00
 6.27500E+00   2.15750E+00   1.04891E+00   5.39009E-01   1.16291E+00
 6.32500E+00   2.15806E+00   1.04892E+00   5.39097E-01   1.16340E+00
 6.37500E+00   2.15858E+00   1.04892E+00   5.39185E-01   1.16387E+00
 6.42500E+00   2.15906E+00   1.04892E+00   5.39273E-01   1.16432E+00
 6.47500E+00   2.15950E+00   1.04893E+00   5.39362E-01   1.16475E+00
 6.52500E+00   2.15989E+00   1.04893E+00   5.39452E-01   1.16516E+00
 6.57500E+00   2.16023E+00   1.04893E+00   5.39542E-01   1.16554E+00
 6.62500E+00   2.16053E+00   1.04893E+00   5.39632E-01   1.16589E+00
 6.67500E+00   2.16077E+00   1.04892E+00   5.39724E-01   1.16622E+00
 6.72500E+00   2.16096E+00   1.04892E+00   5.39816E-01   1.16652E+00
 6.77500E+00   2.16110E+00   1.04892E+00   5.39909E-01   1.16680E+00
 6.82500E+00   2.16119E+00   1.04891E+00   5.40002E-01   1.16704E+00
 6.87500E+00   2.16122E+00   1.04891E+00   5.40096E-01   1.16727E+00
 6.92500E+00   2.16121E+00   1.04890E+00   5.40191E-01   1.16747E+00
 6.97500E+00   2.16116E+00   1.04890E+00   5.40287E-01   1.16764E+00
 7.02500E+00   2.16106E+00   1.04889E+00   5.40384E-01   1.16780E+00
 7.07500E+00   2.16092E+00   1.04889E+00   5.40481E-01   1.16794E+00
 7.12500E+00   2.16075E+00   1.04888E+00   5.40580E-01   1.16806E+00
 7.17500E+00   2.16055E+00   1.04888E+00   5.40679E-01   1.16816E+00
 7.22500E+00   2.16032E+00   1.04887E+00   5.40780E-01   1.16826E+00
 7.27500E+00   2.16007E+00   1.04887E+00   5.40882E-01   1.16834E+00
 7.32500E+00   2.15981E+00   1.04886E+00   5.40985E-01   1.16842E+00
 7.37500E+00   2.15953E+00   1.04886E+00   5.41089E-01   1.16850E+00
 7.42500E+00   2.15925E+00   1.04886E+00   5.41194E-01   1.16858E+00
 7.47500E+00   2.15897E+00   1.04885E+00   5.41301E-01   1.16865E+00
 7.52500E+00   2.15869E+00   1.04885E+00   5.41408E-01   1.16874E+00
 7.57500E+00   2.15842E+00   1.04885E+00   5.41517E-01   1.16882E+00
 7.62500E+00   2.15817E+00   1.04885E+00   5.41628E-01   1.16892E+00
 7.67500E+00   2.15792E+00   1.04885E+00   5.41740E-01   1.16903E+00
 7.72500E+00   2.15770E+00   1.04885E+00   5.41853E-01   1.16916E+00
 7.77500E+00   2.15749E+00   1.04885E+00   5.41968E-01   1.16929E+00
 7.82500E+00   2.15731E+00   1.04886E+00   5.42085E-01   1.16945E+00
 7.87500E+00   2.15715E+00   1.04886E+00   5.42203E-01   1.16962E+00
 7.92500E+00   2.15703E+00   1.04886E+00   5.42323E-01   1.16981E+00
 7.97500E+00   2.15692E+00   1.04887E+00   5.42445E-01   1.17001E+00
 8.02500E+00   2.15685E+00   1.04888E+00   5.42569E-01   1.17024E+00
 8.07500E+00   2.15681E+00   1.04889E+00   5.42695E-01   1.17049E+00
 8.12500E+00   2.15679E+00   1.04890E+00   5.42823E-01   1.17076E+00
 8.17500E+00   2.15681E+00   1.04891E+00   5.42952E-01   1.17104E+00
 8.22500E+00   2.15685E+00   1.04893E+00   5.43083E-01   1.17135E+00
 8.27500E+00   2.15692E+00   1.04894E+00   5.43217E-01   1.17168E+00
 8.32500E+00   2.15702E+00   1.04896E+00   5.43352E-01   1.17202E+00
 8.37500E+00   2.15715E+00   1.04899E+00   5.43488E-01   1.17238E+00
 8.42500E+00   2.15729E+00   1.04902E+00   5.43626E-01   1.17276E+00
 8.47500E+00   2.15746E+00   1.04905E+00   5.43765E-01   1.17315E+00
 8.52500E+00   2.15765E+00   1.04909E+00   5.43906E-01   1.17356E+00
 8.57500E+00   2.15784E+00   1.04913E+00   5.44047E-01   1.17397E+00
 8.62500E+00   2.15805E+00   1.04918E+00   5.44189E-01   1.17439E+00
 8.67500E+00   2.15827E+00   1.04924E+00   5.44332E-01   1.17482E+00
 8.72500E+00   2.15850E+00   1.04931E+00   5.44477E-01   1.17526E+00
 8.77500E+00   2.15875E+00   1.04939E+00   5.44624E-01   1.17571E+00
 8.82500E+00   2.15901E+00   1.04948E+00   5.44774E-01   1.17617E+00
 8.87500E+00   2.15929E+00   1.04956E+00   5.44926E-01   1.17665E+00
 8.92500E+00   2.15959E+00   1.04966E+00   5.45081E-01   1.17715E+00
 8.97500E+00   2.15991E+00   1.04976E+00   5.45239E-01   1.17767E+00
 9.02500E+00   2.16026E+00   1.04986E+00   5.45399E-01   1.17820E+00
 9.07500E+00   2.16064E+00   1.04996E+00   5.45563E-01   1.17876E+00
 9.12500E+00   2.16104E+00   1.05007E+00   5.45731E-01   1.17934E+00
 9.17500E+00   2.16146E+00   1.05018E+00   5.45902E-01   1.17995E+00
 9.22500E+00   2.16191E+00   1.05029E+00   5.46077E-01   1.18057E+00
 9.27500E+00   2.16239E+00   1.05040E+00   5.46257E-01   1.18122E+00
 9.32500E+00   2.16290E+00   1.05051E+00   5.46440E-01   1.18189E+00
 9.37500E+00   2.16343E+00   1.05062E+00   5.46628E-01   1.18259E+00
 9.42500E+00   2.16398E+00   1.05073E+00   5.46821E-01   1.18331E+00
 9.47500E+00   2.16457E+00   1.05084E+00   5.47019E-01   1.18406E+00
 9.52500E+00   2.16517E+00   1.05095E+00   5.47222E-01   1.18483E+00
 9.57500E+00   2.16580E+00   1.05106E+00   5.47430E-01   1.18562E+00
 9.62500E+00   2.16645E+00   1.05116E+00   5.47644E-01   1.18644E+00
 9.67500E+00   2.16711E+00   1.05127E+00   5.47863E-01   1.18728E+00
 9.72500E+00   2.16780E+00   1.05138E+00   5.48088E-01   1.18815E+00
 9.77500E+00   2.16851E+00   1.05149E+00   5.48319E-01   1.18903E+00
 9.82500E+00   2.16923E+00   1.05159E+00   5.48555E-01   1.18994E+00
 9.87500E+00   2.16997E+00   1.05170E+00   5.48798E-01   1.19087E+00
 9.92500E+00   2.17072E+00   1.05180E+00   5.49047E-01   1.19182E+00
 9.97500E+00   2.17147E+00   1.05190E+00   5.49301E-01   1.19279E+00
 1.00250E+01   2.17224E+00   1.05201E+00   5.49562E-01   1.19378E+00
 1.00750E+01   2.17302E+00   1.05211E+00   5.49828E-01   1.19479E+00
 1.01250E+01   2.17380E+00   1.05221E+00   5.50101E-01   1.19581E+00
 1.01750E+01   2.17458E+00   1.05231E+00   5.50381E-01   1.19685E+00
 1.02250E+01   2.17537E+00   1.05241E+00   5.50666E-01   1.19790E+00
 1.02750E+01   2.17616E+00   1.05251E+00   5.50957E-01   1.19897E+00
 1.03250E+01   2.17694E+00   1.05261E+00   5.51253E-01   1.20005E+00
 1.03750E+01   2.17772E+00   1.05271E+00   5.51556E-01   1.20114E+00
 1.04250E+01   2.17850E+00   1.05281E+00   5.51863E-01   1.20223E+00
 1.04750E+01   2.17927E+00   1.05291E+00   5.52176E-01   1.20334E+00
 1.05250E+01   2.18003E+00   1.05300E+00   5.52493E-01   1.20445E+00
 1.05750E+01   2.18078E+00   1.05310E+00   5.52815E-01   1.20557E+00
 1.06250E+01   2.18151E+00   1.05320E+00   5.53142E-01   1.20669E+00
 1.06750E+01   2.18224E+00   1.05330E+00   5.53472E-01   1.20781E+00
 1.07250E+01   2.18295E+00   1.05339E+00   5.53806E-01   1.20893E+00
 1.07750E+01   2.18364E+00   1.05349E+00   5.54142E-01   1.21005E+00
 1.08250E+01   2.18432E+00   1.05359E+00   5.54481E-01   1.21116E+00
 1.08750E+01   2.18497E+00   1.05368E+00   5.54822E-01   1.21227E+00
 1.09250E+01   2.18561E+00   1.05378E+00   5.55164E-01   1.21337E+00
 1.09750E+01   2.18623E+00   1.05387E+00   5.55507E-01   1.21447E+00
 1.10250E+01   2.18683E+00   1.05397E+00   5.55850E-01   1.21555E+00
 1.10750E+01   2.18740E+00   1.05406E+00   5.56192E-01   1.21662E+00
 1.11250E+01   2.18796E+00   1.05415E+00   5.56532E-01   1.21767E+00
 1.11750E+01   2.18849E+00   1.05425E+00   5.56871E-01   1.21870E+00
 1.12250E+01   2.18899E+00   1.05434E+00   5.57206E-01   1.21972E+00
 1.12750E+01   2.18948E+00   1.05442E+00   5.57538E-01   1.22071E+00
 1.13250E+01   2.18993E+00   1.05451E+00   5.57864E-01   1.22169E+00
 1.13750E+01   2.19037E+00   1.05460E+00   5.58185E-01   1.22263E+00
 1.14250E+01   2.19077E+00   1.05468E+00   5.58499E-01   1.22354E+00
 1.14750E+01   2.19115E+00   1.05476E+00   5.58805E-01   1.22443E+00
 1.15250E+01   2.19151E+00   1.05484E+00   5.59103E-01   1.22528E+00
 1.15750E+01   2.19184E+00   1.05491E+00   5.59391E-01   1.22610E+00
 1.16250E+01   2.19214E+00   1.05499E+00   5.59669E-01   1.22687E+00
 1.16750E+01   2.19242E+00   1.05506E+00   5.59934E-01   1.22761E+00
 1.17250E+01   2.19266E+00   1.05512E+00   5.60187E-01   1.22830E+00
 1.17750E+01   2.19288E+00   1.05519E+00   5.60426E-01   1.22895E+00
 1.18250E+01   2.19308E+00   1.05525E+00   5.60650E-01   1.22955E+00
 1.18750E+01   2.19324E+00   1.05530E+00   5.60858E-01   1.23010E+00
 1.19250E+01   2.19338E+00   1.05535E+00   5.61050E-01   1.23059E+00
 1.19750E+01   2.19349E+00   1.05540E+00   5.61224E-01   1.23104E+00
 1.20250E+01   2.19356E+00   1.05544E+00   5.61379E-01   1.23142E+00
 1.20750E+01   2.19361E+00   1.05548E+00   5.61514E-01   1.23174E+00
 1.21250E+01   2.19363E+00   1.05551E+00   5.61629E-01   1.23201E+00
 1.21750E+01   2.19362E+00   1.05554E+00   5.61722E-01   1.23220E+00
 1.22250E+01   2.19358E+00   1.05556E+00   5.61794E-01   1.23234E+00
 1.22750E+01   2.19350E+00   1.05557E+00   5.61844E-01   1.23240E+00
 1.23250E+01   2.19340E+00   1.05558E+00   5.61870E-01   1.23240E+00
 1.23750E+01   2.19326E+00   1.05559E+00   5.61871E-01   1.23233E+00
 1.24250E+01   2.19309E+00   1.05558E+00   5.61849E-01   1.23219E+00
 1.24750E+01   2.19290E+00   1.05558E+00   5.61802E-01   1.23197E+00
 1.25250E+01   2.19266E+00   1.05556E+00   5.61729E-01   1.23168E+00
 1.25750E+01   2.19240E+00   1.05554E+00   5.61631E-01   1.23132E+00
 1.26250E+01   2.19211E+00   1.05551E+00   5.61508E-01   1.23088E+00
 1.26750E+01   2.19178E+00   1.05548E+00   5.61359E-01   1.23037E+00
 1.27250E+01   2.19142E+00   1.05544E+00   5.61185E-01   1.22979E+00
 1.27750E+01   2.19103E+00   1.05540E+00   5.60986E-01   1.22914E+00
 1.28250E+01   2.19061E+00   1.05534E+00   5.60762E-01   1.22841E+00
 1.28750E+01   2.19016E+00   1.05529E+00   5.60513E-01   1.22761E+00
 1.29250E+01   2.18968E+00   1.05522E+00   5.60241E-01   1.22675E+00
 1.29750E+01   2.18917E+00   1.05515E+00   5.59945E-01   1.22582E+00
 1.30250E+01   2.18864E+00   1.05508E+00   5.59626E-01   1.22482E+00
 1.30750E+01   2.18807E+00   1.05500E+00   5.59285E-01   1.22376E+00
 1.31250E+01   2.18748E+00   1.05491E+00   5.58923E-01   1.22264E+00
 1.31750E+01   2.18687E+00   1.05482E+00   5.58541E-01   1.22146E+00
 1.32250E+01   2.18623E+00   1.05472E+00   5.58139E-01   1.22022E+00
 1.32750E+01   2.18557E+00   1.05462E+00   5.57719E-01   1.21893E+00
 1.33250E+01   2.18489E+00   1.05452E+00   5.57282E-01   1.21760E+00
 1.33750E+01   2.18419E+00   1.05441E+00   5.56830E-01   1.21622E+00
 1.34250E+01   2.18347E+00   1.05429E+00   5.56362E-01   1.21480E+00
 1.34750E+01   2.18273E+00   1.05418E+00   5.55881E-01   1.21334E+00
 1.35250E+01   2.18198E+00   1.05406E+00   5.55388E-01   1.21184E+00
 1.35750E+01   2.18121E+00   1.05394E+00   5.54884E-01   1.21032E+00
 1.36250E+01   2.18043E+00   1.05381E+00   5.54371E-01   1.20877E+00
 1.36750E+01   2.17964E+00   1.05369E+00   5.53851E-01   1.20720E+00
 1.37250E+01   2.17885E+00   1.05356E+00   5.53323E-01   1.20561E+00
 1.37750E+01   2.17804E+00   1.05343E+00   5.52791E-01   1.20400E+00
 1.38250E+01   2.17723E+00   1.05330E+00   5.52254E-01   1.20238E+00
 1.38750E+01   2.17641E+00   1.05317E+00   5.51715E-01   1.20076E+00
 1.39250E+01   2.17559E+00   1.05304E+00   5.51175E-01   1.19913E+00
 1.39750E+01   2.17477E+00   1.05291E+00   5.50636E-01   1.19751E+00
 1.40250E+01   2.17395E+00   1.05278E+00   5.50098E-01   1.19589E+00
 1.40750E+01   2.17313E+00   1.05265E+00   5.49562E-01   1.19427E+00
 1.41250E+01   2.17232E+00   1.05252E+00   5.49030E-01   1.19267E+00
 1.41750E+01   2.17150E+00   1.05239E+00   5.48503E-01   1.19108E+00
 1.42250E+01   2.17070E+00   1.05227E+00   5.47982E-01   1.18950E+00
 1.42750E+01   2.16989E+00   1.05214E+00   5.47468E-01   1.18795E+00
 1.43250E+01   2.16910E+00   1.05202E+00   5.46961E-01   1.18641E+00
 1.43750E+01   2.16831E+00   1.05190E+00   5.46463E-01   1.18490E+00
 1.44250E+01   2.16753E+00   1.05178E+00   5.45974E-01   1.18341E+00
 1.44750E+01   2.16676E+00   1.05166E+00   5.45496E-01   1.18196E+00
 1.45250E+01   2.16600E+00   1.05155E+00   5.45028E-01   1.18053E+00
 1.45750E+01   2.16525E+00   1.05144E+00   5.44571E-01   1.17913E+00
 1.46250E+01   2.16451E+00   1.05133E+00   5.44125E-01   1.17776E+00
 1.46750E+01   2.16378E+00   1.05123E+00   5.43692E-01   1.17643E+00
 1.47250E+01   2.16306E+00   1.05113E+00   5.43271E-01   1.17513E+00
 1.47750E+01   2.16236E+00   1.05103E+00   5.42863E-01   1.17387E+00
 1.48250E+01   2.16167E+00   1.05093E+00   5.42469E-01   1.17264E+00
 1.48750E+01   2.16099E+00   1.05084E+00   5.42087E-01   1.17145E+00
 1.49250E+01   2.16033E+00   1.05075E+00   5.41719E-01   1.17029E+00
 1.49750E+01   2.15968E+00   1.05067E+00   5.41364E-01   1.16917E+00
 1.50250E+01   2.15905E+00   1.05059E+00   5.41024E-01   1.16810E+00
 1.50750E+01   2.15843E+00   1.05051E+00   5.40697E-01   1.16706E+00
 1.51250E+01   2.15782E+00   1.05043E+00   5.40384E-01   1.16605E+00
 1.51750E+01   2.15723E+00   1.05036E+00   5.40084E-01   1.16509E+00
 1.52250E+01   2.15666E+00   1.05029E+00   5.39799E-01   1.16416E+00
 1.52750E+01   2.15610E+00   1.05023E+00   5.39526E-01   1.16327E+00
 1.53250E+01   2.15556E+00   1.05017E+00   5.39267E-01   1.16242E+00
