      xx/10.        Omega0        Omega1        Omega2           C_l         r_avg
         [-]       [kg^-1]     [m kg^-1]   [m^2 kg^-1]           [-]           [m]
 1.02500E+00   4.97387E+16   9.30306E+07   3.29242E-01   9.22194E-06   3.54251E-09
 1.07500E+00   6.74012E+16   1.33948E+08   5.23568E-01   1.54727E-05   3.80394E-09
 1.12500E+00   7.94872E+16   1.57627E+08   7.41650E-01   2.36508E-05   4.14748E-09
 1.17500E+00   8.69561E+16   2.11245E+08   1.00330E+00   3.40243E-05   4.54392E-09
 1.22500E+00   9.06306E+16   2.64298E+08   1.29654E+00   4.68288E-05   4.98518E-09
 1.27500E+00   9.12298E+16   3.08417E+08   1.60453E+00   6.22691E-05   5.46991E-09
 1.32500E+00   8.93870E+16   3.43529E+08   1.91344E+00   8.05822E-05   6.00145E-09
 1.37500E+00   8.56617E+16   3.74083E+08   2.21220E+00   1.02105E-04   6.58700E-09
 1.42500E+00   8.05492E+16   3.78007E+08   2.48294E+00   1.27341E-04   7.23720E-09
 1.47500E+00   7.44877E+16   3.78014E+08   2.73124E+00   1.57095E-04   7.96699E-09
 1.52500E+00   6.78635E+16   3.75408E+08   2.96357E+00   1.92523E-04   8.79462E-09
 1.57500E+00   6.10143E+16   3.65277E+08   3.18504E+00   2.35167E-04   9.74054E-09
 1.62500E+00   5.42315E+16   3.50407E+08   3.40572E+00   2.87019E-04   1.08265E-08
 1.67500E+00   4.77595E+16   3.32099E+08   3.63945E+00   3.50581E-04   1.20738E-08
 1.72500E+00   4.17940E+16   3.11820E+08   3.90430E+00   4.28925E-04   1.35007E-08
 1.77500E+00   3.64815E+16   2.91378E+08   4.22257E+00   5.25727E-04   1.51181E-08
 1.82500E+00   3.19185E+16   2.72527E+08   4.62023E+00   6.45298E-04   1.69242E-08
 1.87500E+00   2.81551E+16   2.56799E+08   5.12626E+00   7.92589E-04   1.88987E-08
 1.92500E+00   2.52013E+16   2.45675E+08   5.77232E+00   9.73173E-04   2.09986E-08
 1.97500E+00   2.30369E+16   2.41126E+08   6.59238E+00   1.19321E-03   2.31579E-08
 2.02500E+00   2.16229E+16   2.41370E+08   7.62084E+00   1.45938E-03   2.52941E-08
 2.07500E+00   2.09132E+16   2.42071E+08   8.89645E+00   1.77878E-03   2.73213E-08
 2.12500E+00   2.08633E+16   2.51636E+08   1.04680E+01   2.15878E-03   2.91660E-08
 2.17500E+00   2.14362E+16   2.76005E+08   1.23822E+01   2.60678E-03   3.07789E-08
 2.22500E+00   2.26048E+16   3.08474E+08   1.46808E+01   3.12991E-03   3.21400E-08
 2.27500E+00   2.43518E+16   3.49785E+08   1.74083E+01   3.73477E-03   3.32541E-08
 2.32500E+00   2.66693E+16   4.02036E+08   2.06100E+01   4.42706E-03   3.41431E-08
 2.37500E+00   2.95567E+16   4.66880E+08   2.43296E+01   5.21118E-03   3.48360E-08
 2.42500E+00   3.30191E+16   5.45638E+08   2.86067E+01   6.08981E-03   3.53629E-08
 2.47500E+00   3.70661E+16   6.39617E+08   3.34747E+01   7.06350E-03   3.57505E-08
 2.52500E+00   4.17106E+16   7.50184E+08   3.89593E+01   8.13034E-03   3.60210E-08
 2.57500E+00   4.69670E+16   8.78723E+08   4.50763E+01   9.28563E-03   3.61916E-08
 2.62500E+00   5.28506E+16   1.02656E+09   5.18299E+01   1.05218E-02   3.62756E-08
 2.67500E+00   5.93762E+16   1.19492E+09   5.92111E+01   1.18282E-02   3.62831E-08
 2.72500E+00   6.65574E+16   1.38486E+09   6.71968E+01   1.31918E-02   3.62219E-08
 2.77500E+00   7.44052E+16   1.59727E+09   7.57494E+01   1.45969E-02   3.60983E-08
 2.82500E+00   8.29275E+16   1.83280E+09   8.48181E+01   1.60261E-02   3.59179E-08
 2.87500E+00   9.21278E+16   2.09187E+09   9.43390E+01   1.74611E-02   3.56858E-08
 2.92500E+00   1.02005E+17   2.37464E+09   1.04238E+02   1.88833E-02   3.54068E-08
 2.97500E+00   1.12551E+17   2.68101E+09   1.14435E+02   2.02746E-02   3.50861E-08
 3.02500E+00   1.23753E+17   3.01068E+09   1.24843E+02   2.16184E-02   3.47289E-08
 3.07500E+00   1.35588E+17   3.36315E+09   1.35374E+02   2.29003E-02   3.43406E-08
 3.12500E+00   1.48029E+17   3.73774E+09   1.45944E+02   2.41085E-02   3.39267E-08
 3.17500E+00   1.61039E+17   4.13364E+09   1.56470E+02   2.52338E-02   3.34929E-08
 3.22500E+00   1.74570E+17   4.54988E+09   1.66879E+02   2.62703E-02   3.30446E-08
 3.27500E+00   1.88570E+17   4.98539E+09   1.77102E+02   2.72149E-02   3.25871E-08
 3.32500E+00   2.02976E+17   5.43895E+09   1.87081E+02   2.80671E-02   3.21257E-08
 3.37500E+00   2.17716E+17   5.90922E+09   1.96766E+02   2.88285E-02   3.16649E-08
 3.42500E+00   2.32714E+17   6.39472E+09   2.06114E+02   2.95026E-02   3.12091E-08
 3.47500E+00   2.47883E+17   6.89385E+09   2.15093E+02   3.00944E-02   3.07620E-08
 3.52500E+00   2.63132E+17   7.40478E+09   2.23673E+02   3.06095E-02   3.03270E-08
 3.57500E+00   2.78363E+17   7.92530E+09   2.31834E+02   3.10543E-02   2.99069E-08
 3.62500E+00   2.93476E+17   8.45260E+09   2.39557E+02   3.14350E-02   2.95041E-08
 3.67500E+00   3.08365E+17   8.98299E+09   2.46830E+02   3.17582E-02   2.91205E-08
 3.72500E+00   3.22925E+17   9.51187E+09   2.53640E+02   3.20298E-02   2.87576E-08
 3.77500E+00   3.37050E+17   1.00340E+10   2.59979E+02   3.22556E-02   2.84166E-08
 3.82500E+00   3.50633E+17   1.05443E+10   2.65841E+02   3.24406E-02   2.80983E-08
 3.87500E+00   3.63572E+17   1.10384E+10   2.71220E+02   3.25897E-02   2.78034E-08
 3.92500E+00   3.75767E+17   1.15133E+10   2.76111E+02   3.27066E-02   2.75322E-08
 3.97500E+00   3.87124E+17   1.19667E+10   2.80510E+02   3.27951E-02   2.72848E-08
 4.02500E+00   3.97555E+17   1.23962E+10   2.84413E+02   3.28579E-02   2.70613E-08
 4.07500E+00   4.06979E+17   1.27969E+10   2.87816E+02   3.28977E-02   2.68616E-08
 4.12500E+00   4.15325E+17   1.31610E+10   2.90717E+02   3.29165E-02   2.66856E-08
 4.17500E+00   4.22530E+17   1.34772E+10   2.93113E+02   3.29158E-02   2.65329E-08
 4.22500E+00   4.28542E+17   1.37333E+10   2.95001E+02   3.28972E-02   2.64032E-08
 4.27500E+00   4.33320E+17   1.39194E+10   2.96383E+02   3.28615E-02   2.62963E-08
 4.32500E+00   4.36834E+17   1.40314E+10   2.97258E+02   3.28097E-02   2.62118E-08
 4.37500E+00   4.39066E+17   1.40673E+10   2.97629E+02   3.27422E-02   2.61493E-08
 4.42500E+00   4.40010E+17   1.40685E+10   2.97499E+02   3.26595E-02   2.61086E-08
 4.47500E+00   4.39671E+17   1.40695E+10   2.96874E+02   3.25619E-02   2.60893E-08
 4.52500E+00   4.38065E+17   1.40526E+10   2.95759E+02   3.24495E-02   2.60911E-08
 4.57500E+00   4.35220E+17   1.39492E+10   2.94160E+02   3.23226E-02   2.61136E-08
 4.62500E+00   4.31174E+17   1.37757E+10   2.92086E+02   3.21811E-02   2.61568E-08
 4.67500E+00   4.25976E+17   1.35495E+10   2.89549E+02   3.20252E-02   2.62203E-08
 4.72500E+00   4.19682E+17   1.32801E+10   2.86560E+02   3.18550E-02   2.63039E-08
 4.77500E+00   4.12358E+17   1.29729E+10   2.83135E+02   3.16706E-02   2.64076E-08
 4.82500E+00   4.04075E+17   1.26307E+10   2.79291E+02   3.14724E-02   2.65312E-08
 4.87500E+00   3.94913E+17   1.22558E+10   2.75046E+02   3.12605E-02   2.66747E-08
 4.92500E+00   3.84954E+17   1.18505E+10   2.70421E+02   3.10356E-02   2.68381E-08
 4.97500E+00   3.74288E+17   1.14176E+10   2.65440E+02   3.07982E-02   2.70214E-08
 5.02500E+00   3.63004E+17   1.09604E+10   2.60129E+02   3.05491E-02   2.72247E-08
 5.07500E+00   3.51195E+17   1.04824E+10   2.54514E+02   3.02892E-02   2.74482E-08
 5.12500E+00   3.38955E+17   9.98740E+09   2.48626E+02   3.00195E-02   2.76921E-08
 5.17500E+00   3.26378E+17   9.47929E+09   2.42497E+02   2.97416E-02   2.79565E-08
 5.22500E+00   3.13556E+17   8.96198E+09   2.36163E+02   2.94568E-02   2.82418E-08
 5.27500E+00   3.00579E+17   8.43940E+09   2.29658E+02   2.91669E-02   2.85482E-08
 5.32500E+00   2.87536E+17   7.91550E+09   2.23022E+02   2.88740E-02   2.88762E-08
 5.37500E+00   2.74512E+17   7.39415E+09   2.16296E+02   2.85800E-02   2.92259E-08
 5.42500E+00   2.61588E+17   6.87920E+09   2.09519E+02   2.82874E-02   2.95978E-08
 5.47500E+00   2.48841E+17   6.37434E+09   2.02737E+02   2.79986E-02   2.99921E-08
 5.52500E+00   2.36343E+17   5.88314E+09   1.95992E+02   2.77163E-02   3.04088E-08
 5.57500E+00   2.24160E+17   5.40892E+09   1.89328E+02   2.74432E-02   3.08480E-08
 5.62500E+00   2.12354E+17   4.95477E+09   1.82792E+02   2.71821E-02   3.13095E-08
 5.67500E+00   2.00982E+17   4.52347E+09   1.76426E+02   2.69357E-02   3.17926E-08
 5.72500E+00   1.90094E+17   4.11748E+09   1.70275E+02   2.67068E-02   3.22963E-08
 5.77500E+00   1.79735E+17   3.73890E+09   1.64381E+02   2.64982E-02   3.28193E-08
 5.82500E+00   1.69946E+17   3.38945E+09   1.58783E+02   2.63122E-02   3.33593E-08
 5.87500E+00   1.60760E+17   3.07043E+09   1.53520E+02   2.61514E-02   3.39136E-08
 5.92500E+00   1.52208E+17   2.78277E+09   1.48627E+02   2.60176E-02   3.44783E-08
 5.97500E+00   1.44313E+17   2.52698E+09   1.44135E+02   2.59128E-02   3.50486E-08
 6.02500E+00   1.37096E+17   2.30328E+09   1.40072E+02   2.58382E-02   3.56189E-08
 6.07500E+00   1.30573E+17   2.11159E+09   1.36462E+02   2.57950E-02   3.61823E-08
 6.12500E+00   1.24753E+17   1.95160E+09   1.33324E+02   2.57836E-02   3.67310E-08
 6.17500E+00   1.19646E+17   1.82281E+09   1.30672E+02   2.58043E-02   3.72563E-08
 6.22500E+00   1.15255E+17   1.72450E+09   1.28516E+02   2.58567E-02   3.77491E-08
 6.27500E+00   1.11580E+17   1.65556E+09   1.26862E+02   2.59400E-02   3.81999E-08
 6.32500E+00   1.08620E+17   1.61434E+09   1.25708E+02   2.60529E-02   3.85997E-08
 6.37500E+00   1.06369E+17   1.59971E+09   1.25051E+02   2.61939E-02   3.89400E-08
 6.42500E+00   1.04820E+17   1.59934E+09   1.24882E+02   2.63608E-02   3.92138E-08
 6.47500E+00   1.03964E+17   1.59913E+09   1.25189E+02   2.65514E-02   3.94158E-08
 6.52500E+00   1.03787E+17   1.60506E+09   1.25955E+02   2.67629E-02   3.95426E-08
 6.57500E+00   1.04276E+17   1.65136E+09   1.27163E+02   2.69926E-02   3.95932E-08
 6.62500E+00   1.05416E+17   1.73188E+09   1.28790E+02   2.72374E-02   3.95690E-08
 6.67500E+00   1.07188E+17   1.83605E+09   1.30812E+02   2.74943E-02   3.94730E-08
 6.72500E+00   1.09574E+17   1.95665E+09   1.33204E+02   2.77602E-02   3.93104E-08
 6.77500E+00   1.12552E+17   2.08953E+09   1.35937E+02   2.80321E-02   3.90873E-08
 6.82500E+00   1.16101E+17   2.23282E+09   1.38983E+02   2.83070E-02   3.88110E-08
 6.87500E+00   1.20196E+17   2.38629E+09   1.42313E+02   2.85824E-02   3.84891E-08
 6.92500E+00   1.24813E+17   2.55050E+09   1.45898E+02   2.88556E-02   3.81293E-08
 6.97500E+00   1.29925E+17   2.72628E+09   1.49710E+02   2.91243E-02   3.77389E-08
 7.02500E+00   1.35503E+17   2.91447E+09   1.53719E+02   2.93867E-02   3.73252E-08
 7.07500E+00   1.41520E+17   3.11591E+09   1.57900E+02   2.96409E-02   3.68943E-08
 7.12500E+00   1.47943E+17   3.33150E+09   1.62223E+02   2.98855E-02   3.64522E-08
 7.17500E+00   1.54741E+17   3.56235E+09   1.66664E+02   3.01194E-02   3.60038E-08
 7.22500E+00   1.61881E+17   3.80972E+09   1.71197E+02   3.03416E-02   3.55535E-08
 7.27500E+00   1.69327E+17   4.07499E+09   1.75797E+02   3.05517E-02   3.51052E-08
 7.32500E+00   1.77044E+17   4.35948E+09   1.80442E+02   3.07490E-02   3.46618E-08
 7.37500E+00   1.84995E+17   4.66434E+09   1.85108E+02   3.09336E-02   3.42261E-08
 7.42500E+00   1.93142E+17   4.99042E+09   1.89775E+02   3.11053E-02   3.38003E-08
 7.47500E+00   2.01446E+17   5.33824E+09   1.94422E+02   3.12643E-02   3.33861E-08
 7.52500E+00   2.09865E+17   5.70793E+09   1.99030E+02   3.14109E-02   3.29849E-08
 7.57500E+00   2.18361E+17   6.09924E+09   2.03579E+02   3.15455E-02   3.25978E-08
 7.62500E+00   2.26891E+17   6.51142E+09   2.08052E+02   3.16685E-02   3.22259E-08
 7.67500E+00   2.35414E+17   6.94325E+09   2.12434E+02   3.17806E-02   3.18697E-08
 7.72500E+00   2.43887E+17   7.39299E+09   2.16709E+02   3.18824E-02   3.15299E-08
 7.77500E+00   2.52268E+17   7.85844E+09   2.20864E+02   3.19748E-02   3.12069E-08
 7.82500E+00   2.60515E+17   8.33699E+09   2.24888E+02   3.20585E-02   3.09009E-08
 7.87500E+00   2.68587E+17   8.82568E+09   2.28772E+02   3.21346E-02   3.06124E-08
 7.92500E+00   2.76442E+17   9.32110E+09   2.32496E+02   3.22025E-02   3.03410E-08
 7.97500E+00   2.84040E+17   9.81967E+09   2.36040E+02   3.22606E-02   3.00861E-08
 8.02500E+00   2.91343E+17   1.03177E+10   2.39384E+02   3.23080E-02   2.98472E-08
 8.07500E+00   2.98312E+17   1.08111E+10   2.42510E+02   3.23443E-02   2.96240E-08
 8.12500E+00   3.04911E+17   1.12948E+10   2.45406E+02   3.23690E-02   2.94162E-08
 8.17500E+00   3.11107E+17   1.17627E+10   2.48058E+02   3.23821E-02   2.92236E-08
 8.22500E+00   3.16867E+17   1.22073E+10   2.50455E+02   3.23837E-02   2.90459E-08
 8.27500E+00   3.22162E+17   1.26200E+10   2.52589E+02   3.23739E-02   2.88830E-08
 8.32500E+00   3.26965E+17   1.29921E+10   2.54451E+02   3.23530E-02   2.87346E-08
 8.37500E+00   3.31252E+17   1.33152E+10   2.56035E+02   3.23211E-02   2.86007E-08
 8.42500E+00   3.35003E+17   1.35830E+10   2.57336E+02   3.22787E-02   2.84811E-08
 8.47500E+00   3.38198E+17   1.37919E+10   2.58350E+02   3.22260E-02   2.83757E-08
 8.52500E+00   3.40825E+17   1.39413E+10   2.59074E+02   3.21635E-02   2.82843E-08
 8.57500E+00   3.42872E+17   1.40335E+10   2.59507E+02   3.20916E-02   2.82069E-08
 8.62500E+00   3.44331E+17   1.40725E+10   2.59650E+02   3.20106E-02   2.81432E-08
 8.67500E+00   3.45199E+17   1.40713E+10   2.59505E+02   3.19210E-02   2.80934E-08
 8.72500E+00   3.45475E+17   1.40680E+10   2.59073E+02   3.18232E-02   2.80572E-08
 8.77500E+00   3.45163E+17   1.40628E+10   2.58361E+02   3.17178E-02   2.80346E-08
 8.82500E+00   3.44270E+17   1.39720E+10   2.57373E+02   3.16052E-02   2.80256E-08
 8.87500E+00   3.42806E+17   1.37908E+10   2.56116E+02   3.14860E-02   2.80301E-08
 8.92500E+00   3.40787E+17   1.35406E+10   2.54600E+02   3.13608E-02   2.80481E-08
 8.97500E+00   3.38228E+17   1.32405E+10   2.52834E+02   3.12301E-02   2.80795E-08
 9.02500E+00   3.35150E+17   1.29017E+10   2.50828E+02   3.10945E-02   2.81244E-08
 9.07500E+00   3.31578E+17   1.25305E+10   2.48596E+02   3.09546E-02   2.81826E-08
 9.12500E+00   3.27537E+17   1.21304E+10   2.46151E+02   3.08113E-02   2.82543E-08
 9.17500E+00   3.23057E+17   1.17035E+10   2.43506E+02   3.06651E-02   2.83394E-08
 9.22500E+00   3.18169E+17   1.12522E+10   2.40679E+02   3.05167E-02   2.84377E-08
 9.27500E+00   3.12906E+17   1.07789E+10   2.37685E+02   3.03671E-02   2.85494E-08
 9.32500E+00   3.07305E+17   1.02867E+10   2.34543E+02   3.02168E-02   2.86744E-08
 9.37500E+00   3.01402E+17   9.77905E+09   2.31270E+02   3.00667E-02   2.88125E-08
 9.42500E+00   2.95236E+17   9.25975E+09   2.27885E+02   2.99177E-02   2.89637E-08
 9.47500E+00   2.88847E+17   8.73279E+09   2.24409E+02   2.97705E-02   2.91278E-08
 9.52500E+00   2.82274E+17   8.20232E+09   2.20860E+02   2.96260E-02   2.93046E-08
 9.57500E+00   2.75559E+17   7.67248E+09   2.17261E+02   2.94849E-02   2.94938E-08
 9.62500E+00   2.68742E+17   7.14737E+09   2.13630E+02   2.93482E-02   2.96950E-08
 9.67500E+00   2.61865E+17   6.63099E+09   2.09990E+02   2.92165E-02   2.99078E-08
 9.72500E+00   2.54969E+17   6.12713E+09   2.06362E+02   2.90908E-02   3.01318E-08
 9.77500E+00   2.48093E+17   5.63936E+09   2.02764E+02   2.89717E-02   3.03661E-08
 9.82500E+00   2.41276E+17   5.17099E+09   1.99219E+02   2.88600E-02   3.06100E-08
 9.87500E+00   2.34557E+17   4.72498E+09   1.95746E+02   2.87564E-02   3.08625E-08
 9.92500E+00   2.27972E+17   4.30395E+09   1.92364E+02   2.86615E-02   3.11225E-08
 9.97500E+00   2.21558E+17   3.91013E+09   1.89092E+02   2.85760E-02   3.13887E-08
 1.00250E+01   2.15347E+17   3.54544E+09   1.85948E+02   2.85003E-02   3.16596E-08
 1.00750E+01   2.09371E+17   3.21139E+09   1.82949E+02   2.84348E-02   3.19335E-08
 1.01250E+01   2.03660E+17   2.90922E+09   1.80111E+02   2.83801E-02   3.22086E-08
 1.01750E+01   1.98242E+17   2.63986E+09   1.77448E+02   2.83365E-02   3.24827E-08
 1.02250E+01   1.93142E+17   2.40392E+09   1.74975E+02   2.83041E-02   3.27536E-08
 1.02750E+01   1.88383E+17   2.20169E+09   1.72704E+02   2.82832E-02   3.30190E-08
 1.03250E+01   1.83986E+17   2.03305E+09   1.70645E+02   2.82738E-02   3.32763E-08
 1.03750E+01   1.79969E+17   1.89733E+09   1.68808E+02   2.82760E-02   3.35229E-08
 1.04250E+01   1.76347E+17   1.79335E+09   1.67202E+02   2.82896E-02   3.37563E-08
 1.04750E+01   1.73134E+17   1.71933E+09   1.65832E+02   2.83146E-02   3.39738E-08
 1.05250E+01   1.70340E+17   1.67316E+09   1.64703E+02   2.83506E-02   3.41730E-08
 1.05750E+01   1.67974E+17   1.65207E+09   1.63819E+02   2.83974E-02   3.43516E-08
 1.06250E+01   1.66040E+17   1.65095E+09   1.63181E+02   2.84544E-02   3.45076E-08
 1.06750E+01   1.64542E+17   1.65124E+09   1.62790E+02   2.85214E-02   3.46391E-08
 1.07250E+01   1.63480E+17   1.65157E+09   1.62644E+02   2.85976E-02   3.47449E-08
 1.07750E+01   1.62852E+17   1.68129E+09   1.62741E+02   2.86826E-02   3.48238E-08
 1.08250E+01   1.62655E+17   1.74947E+09   1.63076E+02   2.87757E-02   3.48755E-08
 1.08750E+01   1.62883E+17   1.84643E+09   1.63644E+02   2.88761E-02   3.48998E-08
 1.09250E+01   1.63526E+17   1.96479E+09   1.64437E+02   2.89832E-02   3.48970E-08
 1.09750E+01   1.64574E+17   2.09913E+09   1.65449E+02   2.90961E-02   3.48679E-08
 1.10250E+01   1.66016E+17   2.24611E+09   1.66668E+02   2.92141E-02   3.48136E-08
 1.10750E+01   1.67837E+17   2.40403E+09   1.68086E+02   2.93363E-02   3.47356E-08
 1.11250E+01   1.70020E+17   2.57239E+09   1.69690E+02   2.94619E-02   3.46355E-08
 1.11750E+01   1.72549E+17   2.75152E+09   1.71469E+02   2.95900E-02   3.45153E-08
 1.12250E+01   1.75405E+17   2.94231E+09   1.73409E+02   2.97198E-02   3.43771E-08
 1.12750E+01   1.78567E+17   3.14596E+09   1.75497E+02   2.98505E-02   3.42230E-08
 1.13250E+01   1.82014E+17   3.36385E+09   1.77718E+02   2.99813E-02   3.40552E-08
 1.13750E+01   1.85724E+17   3.59741E+09   1.80059E+02   3.01113E-02   3.38758E-08
 1.14250E+01   1.89672E+17   3.84804E+09   1.82503E+02   3.02399E-02   3.36868E-08
 1.14750E+01   1.93835E+17   4.11705E+09   1.85036E+02   3.03663E-02   3.34905E-08
 1.15250E+01   1.98188E+17   4.40563E+09   1.87643E+02   3.04897E-02   3.32885E-08
 1.15750E+01   2.02704E+17   4.71472E+09   1.90307E+02   3.06096E-02   3.30826E-08
 1.16250E+01   2.07359E+17   5.04497E+09   1.93013E+02   3.07253E-02   3.28745E-08
 1.16750E+01   2.12125E+17   5.39669E+09   1.95746E+02   3.08362E-02   3.26657E-08
 1.17250E+01   2.16976E+17   5.76978E+09   1.98490E+02   3.09418E-02   3.24574E-08
 1.17750E+01   2.21885E+17   6.16373E+09   2.01231E+02   3.10418E-02   3.22508E-08
 1.18250E+01   2.26827E+17   6.57769E+09   2.03954E+02   3.11355E-02   3.20471E-08
 1.18750E+01   2.31775E+17   7.01040E+09   2.06645E+02   3.12227E-02   3.18471E-08
 1.19250E+01   2.36703E+17   7.46034E+09   2.09289E+02   3.13030E-02   3.16516E-08
 1.19750E+01   2.41586E+17   7.92564E+09   2.11875E+02   3.13762E-02   3.14614E-08
 1.20250E+01   2.46399E+17   8.40417E+09   2.14388E+02   3.14421E-02   3.12771E-08
 1.20750E+01   2.51117E+17   8.89334E+09   2.16818E+02   3.15004E-02   3.10991E-08
 1.21250E+01   2.55718E+17   9.39006E+09   2.19152E+02   3.15510E-02   3.09280E-08
 1.21750E+01   2.60178E+17   9.89054E+09   2.21380E+02   3.15938E-02   3.07642E-08
 1.22250E+01   2.64478E+17   1.03902E+10   2.23493E+02   3.16288E-02   3.06079E-08
 1.22750E+01   2.68595E+17   1.08834E+10   2.25480E+02   3.16560E-02   3.04594E-08
 1.23250E+01   2.72511E+17   1.13637E+10   2.27334E+02   3.16755E-02   3.03190E-08
 1.23750E+01   2.76209E+17   1.18240E+10   2.29047E+02   3.16872E-02   3.01868E-08
 1.24250E+01   2.79671E+17   1.22565E+10   2.30612E+02   3.16913E-02   3.00630E-08
 1.24750E+01   2.82882E+17   1.26537E+10   2.32024E+02   3.16879E-02   2.99477E-08
 1.25250E+01   2.85830E+17   1.30084E+10   2.33277E+02   3.16773E-02   2.98411E-08
 1.25750E+01   2.88501E+17   1.33150E+10   2.34368E+02   3.16595E-02   2.97432E-08
 1.26250E+01   2.90886E+17   1.35694E+10   2.35293E+02   3.16349E-02   2.96540E-08
 1.26750E+01   2.92975E+17   1.37694E+10   2.36050E+02   3.16036E-02   2.95736E-08
 1.27250E+01   2.94762E+17   1.39152E+10   2.36638E+02   3.15660E-02   2.95020E-08
 1.27750E+01   2.96240E+17   1.40084E+10   2.37055E+02   3.15224E-02   2.94392E-08
 1.28250E+01   2.97406E+17   1.40525E+10   2.37303E+02   3.14730E-02   2.93854E-08
 1.28750E+01   2.98258E+17   1.40590E+10   2.37382E+02   3.14182E-02   2.93403E-08
