      xx/10.        Omega0        Omega1        Omega2           C_l         r_avg
         [-]       [kg^-1]     [m kg^-1]   [m^2 kg^-1]           [-]           [m]
 1.02500E+00   2.51389E+20   8.39586E+10   3.42499E+01   5.27243E-05   3.33979E-10
 1.07500E+00   3.97151E+20   1.25126E+11   5.41388E+01   8.33645E-05   3.15060E-10
 1.12500E+00   5.40584E+20   1.47284E+11   7.37388E+01   1.13582E-04   2.72453E-10
 1.17500E+00   6.81769E+20   1.94157E+11   9.30592E+01   1.43389E-04   2.84783E-10
 1.22500E+00   8.20777E+20   2.45244E+11   1.12108E+02   1.72799E-04   2.98796E-10
 1.27500E+00   9.57670E+20   2.96544E+11   1.30894E+02   2.01821E-04   3.09651E-10
 1.32500E+00   1.09251E+21   3.47285E+11   1.49422E+02   2.30467E-04   3.17879E-10
 1.37500E+00   1.22535E+21   3.97332E+11   1.67701E+02   2.58744E-04   3.24261E-10
 1.42500E+00   1.35624E+21   4.46675E+11   1.85735E+02   2.86662E-04   3.29348E-10
 1.47500E+00   1.48524E+21   4.95327E+11   2.03531E+02   3.14230E-04   3.33499E-10
 1.52500E+00   1.61239E+21   5.43307E+11   2.21096E+02   3.41456E-04   3.36957E-10
 1.57500E+00   1.73775E+21   5.90632E+11   2.38433E+02   3.68347E-04   3.39884E-10
 1.62500E+00   1.86134E+21   6.37319E+11   2.55549E+02   3.94911E-04   3.42398E-10
 1.67500E+00   1.98322E+21   6.83384E+11   2.72448E+02   4.21155E-04   3.44583E-10
 1.72500E+00   2.10343E+21   7.28840E+11   2.89135E+02   4.47086E-04   3.46501E-10
 1.77500E+00   2.22200E+21   7.73699E+11   3.05615E+02   4.72710E-04   3.48200E-10
 1.82500E+00   2.33896E+21   8.17973E+11   3.21892E+02   4.98033E-04   3.49716E-10
 1.87500E+00   2.45436E+21   8.61672E+11   3.37969E+02   5.23060E-04   3.51078E-10
 1.92500E+00   2.56822E+21   9.04809E+11   3.53851E+02   5.47798E-04   3.52310E-10
 1.97500E+00   2.68058E+21   9.47397E+11   3.69541E+02   5.72252E-04   3.53431E-10
 2.02500E+00   2.79145E+21   9.89447E+11   3.85042E+02   5.96426E-04   3.54456E-10
 2.07500E+00   2.90089E+21   1.03097E+12   4.00359E+02   6.20325E-04   3.55398E-10
 2.12500E+00   3.00891E+21   1.07197E+12   4.15495E+02   6.43956E-04   3.56267E-10
 2.17500E+00   3.11553E+21   1.11247E+12   4.30452E+02   6.67320E-04   3.57073E-10
 2.22500E+00   3.22079E+21   1.15247E+12   4.45235E+02   6.90425E-04   3.57824E-10
 2.27500E+00   3.32470E+21   1.19199E+12   4.59845E+02   7.13272E-04   3.58526E-10
 2.32500E+00   3.42730E+21   1.23103E+12   4.74285E+02   7.35867E-04   3.59184E-10
 2.37500E+00   3.52860E+21   1.26961E+12   4.88558E+02   7.58212E-04   3.59805E-10
 2.42500E+00   3.62861E+21   1.30772E+12   5.02665E+02   7.80311E-04   3.60392E-10
 2.47500E+00   3.72735E+21   1.34539E+12   5.16609E+02   8.02165E-04   3.60949E-10
 2.52500E+00   3.82485E+21   1.38261E+12   5.30392E+02   8.23778E-04   3.61480E-10
 2.57500E+00   3.92110E+21   1.41939E+12   5.44014E+02   8.45152E-04   3.61987E-10
 2.62500E+00   4.01613E+21   1.45574E+12   5.57478E+02   8.66288E-04   3.62472E-10
 2.67500E+00   4.10994E+21   1.49165E+12   5.70783E+02   8.87187E-04   3.62938E-10
 2.72500E+00   4.20252E+21   1.52714E+12   5.83930E+02   9.07851E-04   3.63387E-10
 2.77500E+00   4.29390E+21   1.56221E+12   5.96920E+02   9.28278E-04   3.63821E-10
 2.82500E+00   4.38406E+21   1.59686E+12   6.09752E+02   9.48469E-04   3.64241E-10
 2.87500E+00   4.47301E+21   1.63109E+12   6.22426E+02   9.68423E-04   3.64651E-10
 2.92500E+00   4.56073E+21   1.66490E+12   6.34941E+02   9.88139E-04   3.65051E-10
 2.97500E+00   4.64723E+21   1.69830E+12   6.47296E+02   1.00761E-03   3.65443E-10
 3.02500E+00   4.73247E+21   1.73128E+12   6.59489E+02   1.02685E-03   3.65831E-10
 3.07500E+00   4.81645E+21   1.76386E+12   6.71517E+02   1.04583E-03   3.66216E-10
 3.12500E+00   4.89915E+21   1.79603E+12   6.83377E+02   1.06456E-03   3.66599E-10
 3.17500E+00   4.98054E+21   1.82777E+12   6.95066E+02   1.08304E-03   3.66983E-10
 3.22500E+00   5.06059E+21   1.85910E+12   7.06579E+02   1.10125E-03   3.67368E-10
 3.27500E+00   5.13925E+21   1.88999E+12   7.17913E+02   1.11919E-03   3.67756E-10
 3.32500E+00   5.21650E+21   1.92045E+12   7.29061E+02   1.13686E-03   3.68149E-10
 3.37500E+00   5.29228E+21   1.95046E+12   7.40017E+02   1.15423E-03   3.68548E-10
 3.42500E+00   5.36654E+21   1.98001E+12   7.50773E+02   1.17130E-03   3.68955E-10
 3.47500E+00   5.43921E+21   2.00909E+12   7.61321E+02   1.18806E-03   3.69372E-10
 3.52500E+00   5.51022E+21   2.03768E+12   7.71652E+02   1.20450E-03   3.69800E-10
 3.57500E+00   5.57949E+21   2.06577E+12   7.81755E+02   1.22059E-03   3.70244E-10
 3.62500E+00   5.64694E+21   2.09334E+12   7.91618E+02   1.23632E-03   3.70702E-10
 3.67500E+00   5.71247E+21   2.12035E+12   8.01228E+02   1.25166E-03   3.71180E-10
 3.72500E+00   5.77595E+21   2.14680E+12   8.10571E+02   1.26661E-03   3.71679E-10
 3.77500E+00   5.83729E+21   2.17265E+12   8.19630E+02   1.28112E-03   3.72202E-10
 3.82500E+00   5.89634E+21   2.19787E+12   8.28388E+02   1.29518E-03   3.72752E-10
 3.87500E+00   5.95297E+21   2.22244E+12   8.36825E+02   1.30876E-03   3.73332E-10
 3.92500E+00   6.00702E+21   2.24630E+12   8.44921E+02   1.32182E-03   3.73946E-10
 3.97500E+00   6.05831E+21   2.26942E+12   8.52653E+02   1.33433E-03   3.74597E-10
 4.02500E+00   6.10666E+21   2.29176E+12   8.59995E+02   1.34625E-03   3.75288E-10
 4.07500E+00   6.15189E+21   2.31326E+12   8.66921E+02   1.35754E-03   3.76024E-10
 4.12500E+00   6.19378E+21   2.33387E+12   8.73403E+02   1.36816E-03   3.76809E-10
 4.17500E+00   6.23209E+21   2.35352E+12   8.79409E+02   1.37805E-03   3.77645E-10
 4.22500E+00   6.26661E+21   2.37214E+12   8.84906E+02   1.38717E-03   3.78537E-10
 4.27500E+00   6.29706E+21   2.38968E+12   8.89859E+02   1.39546E-03   3.79492E-10
 4.32500E+00   6.32319E+21   2.40609E+12   8.94231E+02   1.40287E-03   3.80519E-10
 4.37500E+00   6.34472E+21   2.42125E+12   8.97985E+02   1.40933E-03   3.81616E-10
 4.42500E+00   6.36138E+21   2.43494E+12   9.01078E+02   1.41478E-03   3.82769E-10
 4.47500E+00   6.37286E+21   2.44698E+12   9.03471E+02   1.41916E-03   3.83968E-10
 4.52500E+00   6.37887E+21   2.45751E+12   9.05121E+02   1.42240E-03   3.85258E-10
 4.57500E+00   6.37911E+21   2.46717E+12   9.05983E+02   1.42443E-03   3.86757E-10
 4.62500E+00   6.37328E+21   2.47607E+12   9.06014E+02   1.42518E-03   3.88508E-10
 4.67500E+00   6.36110E+21   2.48201E+12   9.05170E+02   1.42459E-03   3.90185E-10
 4.72500E+00   6.34227E+21   2.48300E+12   9.03410E+02   1.42257E-03   3.91501E-10
 4.77500E+00   6.31653E+21   2.48361E+12   9.00691E+02   1.41907E-03   3.93193E-10
 4.82500E+00   6.28364E+21   2.48311E+12   8.96975E+02   1.41402E-03   3.95171E-10
 4.87500E+00   6.24338E+21   2.47981E+12   8.92226E+02   1.40737E-03   3.97191E-10
 4.92500E+00   6.19555E+21   2.47380E+12   8.86413E+02   1.39905E-03   3.99287E-10
 4.97500E+00   6.14001E+21   2.46505E+12   8.79507E+02   1.38902E-03   4.01473E-10
 5.02500E+00   6.07666E+21   2.45344E+12   8.71488E+02   1.37724E-03   4.03748E-10
 5.07500E+00   6.00545E+21   2.43885E+12   8.62341E+02   1.36368E-03   4.06106E-10
 5.12500E+00   5.92637E+21   2.42115E+12   8.52057E+02   1.34832E-03   4.08539E-10
 5.17500E+00   5.83949E+21   2.40023E+12   8.40639E+02   1.33116E-03   4.11034E-10
 5.22500E+00   5.74495E+21   2.37599E+12   8.28095E+02   1.31221E-03   4.13578E-10
 5.27500E+00   5.64294E+21   2.34833E+12   8.14444E+02   1.29148E-03   4.16154E-10
 5.32500E+00   5.53372E+21   2.31719E+12   7.99716E+02   1.26902E-03   4.18739E-10
 5.37500E+00   5.41765E+21   2.28251E+12   7.83952E+02   1.24488E-03   4.21311E-10
 5.42500E+00   5.29512E+21   2.24428E+12   7.67200E+02   1.21913E-03   4.23840E-10
 5.47500E+00   5.16661E+21   2.20251E+12   7.49521E+02   1.19186E-03   4.26297E-10
 5.52500E+00   5.03265E+21   2.15723E+12   7.30984E+02   1.16317E-03   4.28647E-10
 5.57500E+00   4.89383E+21   2.10852E+12   7.11668E+02   1.13319E-03   4.30853E-10
 5.62500E+00   4.75078E+21   2.05651E+12   6.91658E+02   1.10204E-03   4.32878E-10
 5.67500E+00   4.60416E+21   2.00133E+12   6.71047E+02   1.06986E-03   4.34678E-10
 5.72500E+00   4.45464E+21   1.94317E+12   6.49932E+02   1.03681E-03   4.36213E-10
 5.77500E+00   4.30294E+21   1.88227E+12   6.28414E+02   1.00304E-03   4.37439E-10
 5.82500E+00   4.14974E+21   1.81888E+12   6.06594E+02   9.68725E-04   4.38312E-10
 5.87500E+00   3.99573E+21   1.75329E+12   5.84575E+02   9.34018E-04   4.38791E-10
 5.92500E+00   3.84155E+21   1.68580E+12   5.62456E+02   8.99083E-04   4.38832E-10
 5.97500E+00   3.68782E+21   1.61673E+12   5.40331E+02   8.64075E-04   4.38398E-10
 6.02500E+00   3.53512E+21   1.54644E+12   5.18292E+02   8.29144E-04   4.37450E-10
 6.07500E+00   3.38397E+21   1.47525E+12   4.96421E+02   7.94429E-04   4.35953E-10
 6.12500E+00   3.23484E+21   1.40352E+12   4.74794E+02   7.60055E-04   4.33876E-10
 6.17500E+00   3.08813E+21   1.33156E+12   4.53479E+02   7.26138E-04   4.31188E-10
 6.22500E+00   2.94419E+21   1.25970E+12   4.32534E+02   6.92777E-04   4.27861E-10
 6.27500E+00   2.80333E+21   1.18823E+12   4.12010E+02   6.60060E-04   4.23862E-10
 6.32500E+00   2.66580E+21   1.11739E+12   3.91948E+02   6.28058E-04   4.19157E-10
 6.37500E+00   2.53178E+21   1.04740E+12   3.72383E+02   5.96832E-04   4.13703E-10
 6.42500E+00   2.40144E+21   9.78443E+11   3.53342E+02   5.66429E-04   4.07440E-10
 6.47500E+00   2.27490E+21   9.10630E+11   3.34847E+02   5.36886E-04   4.00294E-10
 6.52500E+00   2.15225E+21   8.44053E+11   3.16912E+02   5.08233E-04   3.92172E-10
 6.57500E+00   2.03357E+21   7.78767E+11   2.99551E+02   4.80488E-04   3.82956E-10
 6.62500E+00   1.91889E+21   7.14818E+11   2.82771E+02   4.53667E-04   3.72517E-10
 6.67500E+00   1.80824E+21   6.52259E+11   2.66577E+02   4.27779E-04   3.60714E-10
 6.72500E+00   1.70165E+21   5.91174E+11   2.50971E+02   4.02828E-04   3.47411E-10
 6.77500E+00   1.59912E+21   5.31696E+11   2.35955E+02   3.78815E-04   3.32493E-10
 6.82500E+00   1.50064E+21   4.74022E+11   2.21528E+02   3.55740E-04   3.15880E-10
 6.87500E+00   1.40619E+21   4.18414E+11   2.07687E+02   3.33599E-04   2.97552E-10
 6.92500E+00   1.31574E+21   3.65197E+11   1.94427E+02   3.12384E-04   2.77560E-10
 6.97500E+00   1.22927E+21   3.14744E+11   1.81745E+02   2.92089E-04   2.56043E-10
 7.02500E+00   1.14672E+21   2.67449E+11   1.69634E+02   2.72703E-04   2.33230E-10
 7.07500E+00   1.06805E+21   2.23696E+11   1.58087E+02   2.54216E-04   2.09443E-10
 7.12500E+00   9.93201E+20   1.83826E+11   1.47095E+02   2.36613E-04   1.85084E-10
 7.17500E+00   9.22104E+20   1.48105E+11   1.36649E+02   2.19880E-04   1.60616E-10
 7.22500E+00   8.54690E+20   1.16697E+11   1.26739E+02   2.04001E-04   1.36537E-10
 7.27500E+00   7.90877E+20   8.96474E+10   1.17352E+02   1.88957E-04   1.13352E-10
 7.32500E+00   7.30581E+20   6.68754E+10   1.08478E+02   1.74730E-04   9.15372E-11
 7.37500E+00   6.73711E+20   4.81810E+10   1.00103E+02   1.61298E-04   7.15158E-11
 7.42500E+00   6.20171E+20   3.32619E+10   9.22137E+01   1.48640E-04   5.36334E-11
 7.47500E+00   5.69861E+20   2.17379E+10   8.47950E+01   1.36734E-04   3.81461E-11
 7.52500E+00   5.22675E+20   1.31816E+10   7.78321E+01   1.25556E-04   2.52195E-11
 7.57500E+00   4.78506E+20   7.14835E+09   7.13098E+01   1.15081E-04   1.49389E-11
 7.62500E+00   4.37243E+20   3.20341E+09   6.52119E+01   1.05283E-04   7.32638E-12
 7.67500E+00   3.98771E+20   9.46881E+08   5.95222E+01   9.61379E-05   2.37450E-12
 7.72500E+00   3.62976E+20   4.43536E+07   5.42241E+01   8.76185E-05   1.22194E-13
 7.77500E+00   3.29739E+20   1.26631E+02   4.93007E+01   7.96982E-05   3.84035E-19
 7.82500E+00   2.98944E+20   1.20312E+02   4.47350E+01   7.23502E-05   4.02458E-19
 7.87500E+00   2.70472E+20   1.13271E+02   4.05101E+01   6.55476E-05   4.18792E-19
 7.92500E+00   2.44204E+20   1.06454E+02   3.66089E+01   5.92632E-05   4.35924E-19
 7.97500E+00   2.20025E+20   1.00082E+02   3.30145E+01   5.34702E-05   4.54866E-19
 8.02500E+00   1.97817E+20   9.39845E+01   2.97101E+01   4.81420E-05   4.75109E-19
 8.07500E+00   1.77466E+20   8.80774E+01   2.66792E+01   4.32523E-05   4.96306E-19
 8.12500E+00   1.58860E+20   8.23595E+01   2.39054E+01   3.87751E-05   5.18440E-19
 8.17500E+00   1.41890E+20   7.68577E+01   2.13728E+01   3.46852E-05   5.41672E-19
 8.22500E+00   1.26447E+20   7.15955E+01   1.90659E+01   3.09578E-05   5.66209E-19
 8.27500E+00   1.12429E+20   6.65847E+01   1.69696E+01   2.75687E-05   5.92240E-19
 8.32500E+00   9.97340E+19   6.18279E+01   1.50692E+01   2.44947E-05   6.19928E-19
 8.37500E+00   8.82665E+19   5.73215E+01   1.33507E+01   2.17133E-05   6.49414E-19
 8.42500E+00   7.79333E+19   5.30591E+01   1.18005E+01   1.92028E-05   6.80827E-19
 8.47500E+00   6.86456E+19   4.90331E+01   1.04055E+01   1.69425E-05   7.14292E-19
 8.52500E+00   6.03190E+19   4.52354E+01   9.15346E+00   1.49125E-05   7.49937E-19
 8.57500E+00   5.28732E+19   4.16582E+01   8.03257E+00   1.30941E-05   7.87889E-19
 8.62500E+00   4.62323E+19   3.82934E+01   7.03169E+00   1.14693E-05   8.28283E-19
 8.67500E+00   4.03249E+19   3.51335E+01   6.14030E+00   1.00214E-05   8.71260E-19
 8.72500E+00   3.50841E+19   3.21709E+01   5.34852E+00   8.73450E-06   9.16966E-19
 8.77500E+00   3.04469E+19   2.93982E+01   4.64709E+00   7.59371E-06   9.65556E-19
 8.82500E+00   2.63551E+19   2.68082E+01   4.02738E+00   6.58517E-06   1.01719E-18
 8.87500E+00   2.27543E+19   2.43937E+01   3.48135E+00   5.69596E-06   1.07205E-18
 8.92500E+00   1.95943E+19   2.21477E+01   3.00156E+00   4.91410E-06   1.13031E-18
 8.97500E+00   1.68288E+19   2.00628E+01   2.58113E+00   4.22852E-06   1.19217E-18
 9.02500E+00   1.44155E+19   1.81322E+01   2.21376E+00   3.62904E-06   1.25783E-18
 9.07500E+00   1.23153E+19   1.63487E+01   1.89364E+00   3.10631E-06   1.32751E-18
 9.12500E+00   1.04929E+19   1.47051E+01   1.61548E+00   2.65180E-06   1.40143E-18
 9.17500E+00   8.91597E+18   1.31943E+01   1.37448E+00   2.25771E-06   1.47985E-18
 9.22500E+00   7.55543E+18   1.18094E+01   1.16626E+00   1.91699E-06   1.56303E-18
 9.27500E+00   6.38497E+18   1.05431E+01   9.86885E-01   1.62327E-06   1.65123E-18
 9.32500E+00   5.38097E+18   9.38845E+00   8.32810E-01   1.37079E-06   1.74475E-18
 9.37500E+00   4.52229E+18   8.33861E+00   7.00851E-01   1.15439E-06   1.84389E-18
 9.42500E+00   3.79004E+18   7.38672E+00   5.88164E-01   9.69465E-07   1.94898E-18
 9.47500E+00   3.16746E+18   6.52613E+00   4.92220E-01   8.11897E-07   2.06037E-18
 9.52500E+00   2.63971E+18   5.75035E+00   4.10772E-01   6.78036E-07   2.17840E-18
 9.57500E+00   2.19366E+18   5.05306E+00   3.41835E-01   5.64654E-07   2.30348E-18
 9.62500E+00   1.81781E+18   4.42820E+00   2.83663E-01   4.68904E-07   2.43601E-18
 9.67500E+00   1.50206E+18   3.86993E+00   2.34722E-01   3.88286E-07   2.57641E-18
 9.72500E+00   1.23761E+18   3.37264E+00   1.93670E-01   3.20613E-07   2.72514E-18
 9.77500E+00   1.01678E+18   2.93105E+00   1.59341E-01   2.63978E-07   2.88268E-18
 9.82500E+00   8.32944E+17   2.54010E+00   1.30720E-01   2.16723E-07   3.04955E-18
 9.87500E+00   6.80373E+17   2.19507E+00   1.06930E-01   1.77416E-07   3.22627E-18
 9.92500E+00   5.54136E+17   1.89150E+00   8.72173E-02   1.44818E-07   3.41342E-18
 9.97500E+00   4.50008E+17   1.62525E+00   7.09321E-02   1.17867E-07   3.61160E-18
 1.00250E+01   3.64380E+17   1.39246E+00   5.75200E-02   9.56536E-08   3.82144E-18
 1.00750E+01   2.94183E+17   1.18957E+00   4.65078E-02   7.74004E-08   4.04363E-18
 1.01250E+01   2.36813E+17   1.01329E+00   3.74941E-02   6.24477E-08   4.27886E-18
 1.01750E+01   1.90072E+17   8.60624E-01   3.01388E-02   5.02363E-08   4.52789E-18
 1.02250E+01   1.52107E+17   7.28823E-01   2.41553E-02   4.02944E-08   4.79151E-18
 1.02750E+01   1.21367E+17   6.15399E-01   1.93029E-02   3.22252E-08   5.07057E-18
 1.03250E+01   9.65530E+16   5.18099E-01   1.53798E-02   2.56961E-08   5.36596E-18
 1.03750E+01   7.65854E+16   4.34899E-01   1.22179E-02   2.04296E-08   5.67861E-18
 1.04250E+01   6.05674E+16   3.63981E-01   9.67742E-03   1.61945E-08   6.00952E-18
 1.04750E+01   4.77577E+16   3.03727E-01   7.64251E-03   1.27995E-08   6.35975E-18
 1.05250E+01   3.75455E+16   2.52696E-01   6.01764E-03   1.00863E-08   6.73040E-18
 1.05750E+01   2.94294E+16   2.09615E-01   4.72421E-03   7.92478E-09   7.12265E-18
 1.06250E+01   2.29992E+16   1.73362E-01   3.69779E-03   6.20803E-09   7.53774E-18
 1.06750E+01   1.79206E+16   1.42953E-01   2.88581E-03   4.84879E-09   7.97700E-18
 1.07250E+01   1.39219E+16   1.17526E-01   2.24544E-03   3.77593E-09   8.44180E-18
 1.07750E+01   1.07834E+16   9.63346E-02   1.74200E-03   2.93175E-09   8.93363E-18
 1.08250E+01   8.32751E+15   7.87285E-02   1.34742E-03   2.26955E-09   9.45403E-18
 1.08750E+01   6.41184E+15   6.41482E-02   1.03912E-03   1.75171E-09   1.00046E-17
 1.09250E+01   4.92217E+15   5.21122E-02   7.98985E-04   1.34802E-09   1.05872E-17
 1.09750E+01   3.76737E+15   4.22081E-02   6.12521E-04   1.03429E-09   1.12036E-17
 1.10250E+01   2.87492E+15   3.40842E-02   4.68180E-04   7.91222E-10   1.18557E-17
 1.10750E+01   2.18737E+15   2.74418E-02   3.56791E-04   6.03483E-10   1.25456E-17
 1.11250E+01   1.65930E+15   2.20279E-02   2.71098E-04   4.58927E-10   1.32754E-17
 1.11750E+01   1.25498E+15   1.76293E-02   2.05375E-04   3.47963E-10   1.40475E-17
 1.12250E+01   9.46363E+14   1.40669E-02   1.55125E-04   2.63048E-10   1.48642E-17
 1.12750E+01   7.11523E+14   1.11909E-02   1.16822E-04   1.98267E-10   1.57281E-17
 1.13250E+01   5.33373E+14   8.87635E-03   8.77169E-05   1.48997E-10   1.66419E-17
 1.13750E+01   3.98643E+14   7.01950E-03   6.56678E-05   1.11640E-10   1.76085E-17
 1.14250E+01   2.97065E+14   5.53453E-03   4.90158E-05   8.34017E-11   1.86307E-17
 1.14750E+01   2.20716E+14   4.35071E-03   3.64782E-05   6.21221E-11   1.97118E-17
 1.15250E+01   1.63505E+14   3.40991E-03   2.70673E-05   4.61353E-11   2.08551E-17
 1.15750E+01   1.20767E+14   2.66459E-03   2.00250E-05   3.41616E-11   2.20639E-17
 1.16250E+01   8.89379E+13   2.07599E-03   1.47713E-05   2.52208E-11   2.33420E-17
 1.16750E+01   6.53058E+13   1.61259E-03   1.08637E-05   1.85652E-11   2.46929E-17
 1.17250E+01   4.78131E+13   1.24891E-03   7.96636E-06   1.36257E-11   2.61206E-17
 1.17750E+01   3.49044E+13   9.64369E-04   5.82450E-06   9.97096E-12   2.76288E-17
 1.18250E+01   2.54075E+13   7.42445E-04   4.24598E-06   7.27506E-12   2.92215E-17
 1.18750E+01   1.84419E+13   5.69893E-04   3.08616E-06   5.29247E-12   3.09022E-17
 1.19250E+01   1.33484E+13   4.36145E-04   2.23656E-06   3.83886E-12   3.26741E-17
 1.19750E+01   9.63514E+12   3.32797E-04   1.61608E-06   2.77632E-12   3.45399E-17
 1.20250E+01   6.93642E+12   2.53184E-04   1.16432E-06   2.00199E-12   3.65007E-17
 1.20750E+01   4.98105E+12   1.92045E-04   8.36380E-07   1.43939E-12   3.85552E-17
 1.21250E+01   3.56862E+12   1.45239E-04   5.99047E-07   1.03186E-12   4.06989E-17
 1.21750E+01   2.55098E+12   1.09515E-04   4.27803E-07   7.37548E-13   4.29306E-17
 1.22250E+01   1.81809E+12   8.23331E-05   3.04617E-07   5.25638E-13   4.52856E-17
 1.22750E+01   1.29005E+12   6.17147E-05   2.16267E-07   3.73518E-13   4.78390E-17
 1.23250E+01   9.07554E+11   4.61228E-05   1.53093E-07   2.64646E-13   5.08210E-17
 1.23750E+01   5.91587E+11   3.43681E-05   1.08057E-07   1.86960E-13   5.80947E-17
 1.24250E+01   2.16120E+11   2.55334E-05   7.60459E-08   1.31693E-13   1.18144E-16
 1.24750E+01   1.16693E+10   1.89136E-05   5.33618E-08   9.24929E-14   1.62080E-15
 1.25250E+01   0.00000E+00   1.39687E-05   3.73350E-08   6.47717E-14      Infinity
 1.25750E+01   1.31703E-02   1.02861E-05   2.60456E-08   4.52267E-14   7.81006E-04
 1.26250E+01   1.85058E-02   7.55193E-06   1.81170E-08   3.14875E-14   4.08085E-04
 1.26750E+01   2.12066E-02   5.52817E-06   1.25652E-08   2.18582E-14   2.60682E-04
 1.27250E+01   2.16855E-02   4.03478E-06   8.68933E-09   1.51295E-14   1.86058E-04
 1.27750E+01   2.06101E-02   2.93611E-06   5.99153E-09   1.04417E-14   1.42460E-04
 1.28250E+01   1.85800E-02   2.13030E-06   4.11931E-09   7.18539E-15   1.14655E-04
 1.28750E+01   1.60773E-02   1.54107E-06   2.82388E-09   4.93023E-15   9.58537E-05
