      xx/10.          rhoa          temp           vel      vel*rhoa
         [-]           [-]           [-]           [-]           [-]
 1.02500E+00   2.64810E+00   9.37408E-01   4.51721E-01   1.19620E+00
 1.07500E+00   2.64656E+00   9.37929E-01   4.51713E-01   1.19548E+00
 1.12500E+00   2.64562E+00   9.38720E-01   4.51371E-01   1.19415E+00
 1.17500E+00   2.64451E+00   9.39784E-01   4.50911E-01   1.19244E+00
 1.22500E+00   2.64274E+00   9.41139E-01   4.50463E-01   1.19046E+00
 1.27500E+00   2.63996E+00   9.42812E-01   4.50108E-01   1.18827E+00
 1.32500E+00   2.63592E+00   9.44830E-01   4.49902E-01   1.18590E+00
 1.37500E+00   2.63041E+00   9.47221E-01   4.49885E-01   1.18338E+00
 1.42500E+00   2.62330E+00   9.50008E-01   4.50087E-01   1.18072E+00
 1.47500E+00   2.61449E+00   9.53202E-01   4.50535E-01   1.17792E+00
 1.52500E+00   2.60393E+00   9.56806E-01   4.51247E-01   1.17502E+00
 1.57500E+00   2.59164E+00   9.60810E-01   4.52238E-01   1.17204E+00
 1.62500E+00   2.57769E+00   9.65186E-01   4.53516E-01   1.16902E+00
 1.67500E+00   2.56222E+00   9.69892E-01   4.55082E-01   1.16602E+00
 1.72500E+00   2.54541E+00   9.74872E-01   4.56932E-01   1.16308E+00
 1.77500E+00   2.52753E+00   9.80055E-01   4.59053E-01   1.16027E+00
 1.82500E+00   2.50885E+00   9.85361E-01   4.61423E-01   1.15764E+00
 1.87500E+00   2.48969E+00   9.90704E-01   4.64014E-01   1.15525E+00
 1.92500E+00   2.47038E+00   9.95997E-01   4.66793E-01   1.15316E+00
 1.97500E+00   2.45122E+00   1.00115E+00   4.69721E-01   1.15139E+00
 2.02500E+00   2.43250E+00   1.00610E+00   4.72754E-01   1.14998E+00
 2.07500E+00   2.41450E+00   1.01078E+00   4.75853E-01   1.14894E+00
 2.12500E+00   2.39740E+00   1.01513E+00   4.78975E-01   1.14829E+00
 2.17500E+00   2.38136E+00   1.01912E+00   4.82084E-01   1.14802E+00
 2.22500E+00   2.36651E+00   1.02274E+00   4.85148E-01   1.14811E+00
 2.27500E+00   2.35288E+00   1.02598E+00   4.88141E-01   1.14854E+00
 2.32500E+00   2.34051E+00   1.02885E+00   4.91044E-01   1.14929E+00
 2.37500E+00   2.32937E+00   1.03137E+00   4.93842E-01   1.15034E+00
 2.42500E+00   2.31942E+00   1.03354E+00   4.96529E-01   1.15166E+00
 2.47500E+00   2.31061E+00   1.03542E+00   4.99100E-01   1.15323E+00
 2.52500E+00   2.30285E+00   1.03700E+00   5.01559E-01   1.15502E+00
 2.57500E+00   2.29607E+00   1.03834E+00   5.03909E-01   1.15701E+00
 2.62500E+00   2.29020E+00   1.03945E+00   5.06156E-01   1.15920E+00
 2.67500E+00   2.28516E+00   1.04036E+00   5.08310E-01   1.16157E+00
 2.72500E+00   2.28087E+00   1.04108E+00   5.10379E-01   1.16411E+00
 2.77500E+00   2.27729E+00   1.04165E+00   5.12374E-01   1.16682E+00
 2.82500E+00   2.27434E+00   1.04207E+00   5.14304E-01   1.16971E+00
 2.87500E+00   2.27199E+00   1.04236E+00   5.16179E-01   1.17276E+00
 2.92500E+00   2.27019E+00   1.04253E+00   5.18008E-01   1.17598E+00
 2.97500E+00   2.26890E+00   1.04259E+00   5.19798E-01   1.17937E+00
 3.02500E+00   2.26810E+00   1.04256E+00   5.21557E-01   1.18294E+00
 3.07500E+00   2.26775E+00   1.04243E+00   5.23291E-01   1.18669E+00
 3.12500E+00   2.26783E+00   1.04221E+00   5.25007E-01   1.19063E+00
 3.17500E+00   2.26830E+00   1.04192E+00   5.26709E-01   1.19474E+00
 3.22500E+00   2.26915E+00   1.04155E+00   5.28401E-01   1.19902E+00
 3.27500E+00   2.27034E+00   1.04111E+00   5.30083E-01   1.20347E+00
 3.32500E+00   2.27183E+00   1.04061E+00   5.31758E-01   1.20806E+00
 3.37500E+00   2.27359E+00   1.04005E+00   5.33426E-01   1.21279E+00
 3.42500E+00   2.27556E+00   1.03946E+00   5.35085E-01   1.21762E+00
 3.47500E+00   2.27770E+00   1.03883E+00   5.36733E-01   1.22252E+00
 3.52500E+00   2.27994E+00   1.03818E+00   5.38367E-01   1.22744E+00
 3.57500E+00   2.28221E+00   1.03753E+00   5.39982E-01   1.23235E+00
 3.62500E+00   2.28444E+00   1.03689E+00   5.41572E-01   1.23719E+00
 3.67500E+00   2.28656E+00   1.03628E+00   5.43133E-01   1.24190E+00
 3.72500E+00   2.28847E+00   1.03572E+00   5.44657E-01   1.24643E+00
 3.77500E+00   2.29010E+00   1.03522E+00   5.46138E-01   1.25071E+00
 3.82500E+00   2.29138E+00   1.03481E+00   5.47569E-01   1.25469E+00
 3.87500E+00   2.29223E+00   1.03449E+00   5.48944E-01   1.25831E+00
 3.92500E+00   2.29260E+00   1.03429E+00   5.50257E-01   1.26152E+00
 3.97500E+00   2.29243E+00   1.03420E+00   5.51501E-01   1.26428E+00
 4.02500E+00   2.29170E+00   1.03425E+00   5.52670E-01   1.26655E+00
 4.07500E+00   2.29038E+00   1.03443E+00   5.53762E-01   1.26832E+00
 4.12500E+00   2.28847E+00   1.03474E+00   5.54771E-01   1.26958E+00
 4.17500E+00   2.28599E+00   1.03518E+00   5.55694E-01   1.27031E+00
 4.22500E+00   2.28297E+00   1.03574E+00   5.56528E-01   1.27054E+00
 4.27500E+00   2.27946E+00   1.03640E+00   5.57272E-01   1.27028E+00
 4.32500E+00   2.27550E+00   1.03716E+00   5.57923E-01   1.26955E+00
 4.37500E+00   2.27117E+00   1.03799E+00   5.58482E-01   1.26841E+00
 4.42500E+00   2.26653E+00   1.03887E+00   5.58949E-01   1.26688E+00
 4.47500E+00   2.26167E+00   1.03979E+00   5.59325E-01   1.26501E+00
 4.52500E+00   2.25664E+00   1.04074E+00   5.59609E-01   1.26284E+00
 4.57500E+00   2.25153E+00   1.04168E+00   5.59805E-01   1.26042E+00
 4.62500E+00   2.24640E+00   1.04261E+00   5.59914E-01   1.25779E+00
 4.67500E+00   2.24131E+00   1.04351E+00   5.59939E-01   1.25500E+00
 4.72500E+00   2.23631E+00   1.04436E+00   5.59884E-01   1.25207E+00
 4.77500E+00   2.23144E+00   1.04517E+00   5.59752E-01   1.24905E+00
 4.82500E+00   2.22674E+00   1.04592E+00   5.59547E-01   1.24597E+00
 4.87500E+00   2.22223E+00   1.04661E+00   5.59274E-01   1.24283E+00
 4.92500E+00   2.21792E+00   1.04724E+00   5.58938E-01   1.23968E+00
 4.97500E+00   2.21384E+00   1.04779E+00   5.58542E-01   1.23652E+00
 5.02500E+00   2.20998E+00   1.04829E+00   5.58093E-01   1.23337E+00
 5.07500E+00   2.20634E+00   1.04872E+00   5.57595E-01   1.23024E+00
 5.12500E+00   2.20291E+00   1.04909E+00   5.57054E-01   1.22714E+00
 5.17500E+00   2.19970E+00   1.04941E+00   5.56475E-01   1.22408E+00
 5.22500E+00   2.19667E+00   1.04968E+00   5.55864E-01   1.22105E+00
 5.27500E+00   2.19382E+00   1.04991E+00   5.55225E-01   1.21807E+00
 5.32500E+00   2.19113E+00   1.05010E+00   5.54565E-01   1.21513E+00
 5.37500E+00   2.18857E+00   1.05027E+00   5.53889E-01   1.21223E+00
 5.42500E+00   2.18613E+00   1.05041E+00   5.53205E-01   1.20938E+00
 5.47500E+00   2.18380E+00   1.05054E+00   5.52518E-01   1.20659E+00
 5.52500E+00   2.18157E+00   1.05064E+00   5.51832E-01   1.20386E+00
 5.57500E+00   2.17944E+00   1.05073E+00   5.51150E-01   1.20120E+00
 5.62500E+00   2.17742E+00   1.05079E+00   5.50474E-01   1.19861E+00
 5.67500E+00   2.17550E+00   1.05084E+00   5.49806E-01   1.19610E+00
 5.72500E+00   2.17367E+00   1.05087E+00   5.49148E-01   1.19367E+00
 5.77500E+00   2.17194E+00   1.05089E+00   5.48501E-01   1.19131E+00
 5.82500E+00   2.17030E+00   1.05089E+00   5.47866E-01   1.18903E+00
 5.87500E+00   2.16874E+00   1.05088E+00   5.47245E-01   1.18683E+00
 5.92500E+00   2.16728E+00   1.05085E+00   5.46638E-01   1.18472E+00
 5.97500E+00   2.16590E+00   1.05082E+00   5.46047E-01   1.18268E+00
 6.02500E+00   2.16461E+00   1.05078E+00   5.45471E-01   1.18073E+00
 6.07500E+00   2.16340E+00   1.05073E+00   5.44913E-01   1.17886E+00
 6.12500E+00   2.16226E+00   1.05068E+00   5.44371E-01   1.17707E+00
 6.17500E+00   2.16121E+00   1.05062E+00   5.43846E-01   1.17537E+00
 6.22500E+00   2.16023E+00   1.05056E+00   5.43340E-01   1.17374E+00
 6.27500E+00   2.15932E+00   1.05049E+00   5.42851E-01   1.17219E+00
 6.32500E+00   2.15848E+00   1.05042E+00   5.42380E-01   1.17072E+00
 6.37500E+00   2.15771E+00   1.05035E+00   5.41927E-01   1.16932E+00
 6.42500E+00   2.15701E+00   1.05028E+00   5.41491E-01   1.16800E+00
 6.47500E+00   2.15638E+00   1.05021E+00   5.41074E-01   1.16676E+00
 6.52500E+00   2.15580E+00   1.05014E+00   5.40674E-01   1.16559E+00
 6.57500E+00   2.15529E+00   1.05007E+00   5.40292E-01   1.16449E+00
 6.62500E+00   2.15484E+00   1.05000E+00   5.39928E-01   1.16346E+00
 6.67500E+00   2.15445E+00   1.04994E+00   5.39580E-01   1.16250E+00
 6.72500E+00   2.15411E+00   1.04987E+00   5.39250E-01   1.16160E+00
 6.77500E+00   2.15382E+00   1.04981E+00   5.38936E-01   1.16077E+00
 6.82500E+00   2.15358E+00   1.04975E+00   5.38637E-01   1.16000E+00
 6.87500E+00   2.15339E+00   1.04969E+00   5.38355E-01   1.15929E+00
 6.92500E+00   2.15325E+00   1.04964E+00   5.38088E-01   1.15864E+00
 6.97500E+00   2.15315E+00   1.04958E+00   5.37836E-01   1.15804E+00
 7.02500E+00   2.15309E+00   1.04953E+00   5.37598E-01   1.15750E+00
 7.07500E+00   2.15307E+00   1.04949E+00   5.37375E-01   1.15701E+00
 7.12500E+00   2.15308E+00   1.04944E+00   5.37165E-01   1.15656E+00
 7.17500E+00   2.15312E+00   1.04940E+00   5.36969E-01   1.15616E+00
 7.22500E+00   2.15319E+00   1.04936E+00   5.36785E-01   1.15580E+00
 7.27500E+00   2.15328E+00   1.04933E+00   5.36614E-01   1.15548E+00
 7.32500E+00   2.15340E+00   1.04930E+00   5.36454E-01   1.15520E+00
 7.37500E+00   2.15353E+00   1.04926E+00   5.36305E-01   1.15495E+00
 7.42500E+00   2.15368E+00   1.04924E+00   5.36168E-01   1.15473E+00
 7.47500E+00   2.15383E+00   1.04921E+00   5.36042E-01   1.15454E+00
 7.52500E+00   2.15400E+00   1.04919E+00   5.35926E-01   1.15438E+00
 7.57500E+00   2.15416E+00   1.04916E+00   5.35819E-01   1.15424E+00
 7.62500E+00   2.15433E+00   1.04914E+00   5.35723E-01   1.15412E+00
 7.67500E+00   2.15449E+00   1.04913E+00   5.35635E-01   1.15402E+00
 7.72500E+00   2.15465E+00   1.04911E+00   5.35557E-01   1.15394E+00
 7.77500E+00   2.15481E+00   1.04910E+00   5.35487E-01   1.15387E+00
 7.82500E+00   2.15495E+00   1.04908E+00   5.35426E-01   1.15381E+00
 7.87500E+00   2.15507E+00   1.04907E+00   5.35374E-01   1.15377E+00
 7.92500E+00   2.15518E+00   1.04906E+00   5.35330E-01   1.15374E+00
 7.97500E+00   2.15528E+00   1.04905E+00   5.35294E-01   1.15371E+00
 8.02500E+00   2.15536E+00   1.04904E+00   5.35265E-01   1.15369E+00
 8.07500E+00   2.15541E+00   1.04903E+00   5.35243E-01   1.15367E+00
 8.12500E+00   2.15545E+00   1.04902E+00   5.35227E-01   1.15365E+00
 8.17500E+00   2.15546E+00   1.04901E+00   5.35217E-01   1.15364E+00
 8.22500E+00   2.15544E+00   1.04900E+00   5.35213E-01   1.15362E+00
 8.27500E+00   2.15540E+00   1.04899E+00   5.35214E-01   1.15360E+00
 8.32500E+00   2.15533E+00   1.04898E+00   5.35220E-01   1.15358E+00
 8.37500E+00   2.15524E+00   1.04897E+00   5.35230E-01   1.15355E+00
 8.42500E+00   2.15513E+00   1.04896E+00   5.35245E-01   1.15352E+00
 8.47500E+00   2.15499E+00   1.04895E+00   5.35263E-01   1.15349E+00
 8.52500E+00   2.15483E+00   1.04894E+00   5.35285E-01   1.15345E+00
 8.57500E+00   2.15465E+00   1.04893E+00   5.35311E-01   1.15341E+00
 8.62500E+00   2.15445E+00   1.04892E+00   5.35340E-01   1.15336E+00
 8.67500E+00   2.15423E+00   1.04891E+00   5.35372E-01   1.15331E+00
 8.72500E+00   2.15400E+00   1.04891E+00   5.35407E-01   1.15326E+00
 8.77500E+00   2.15375E+00   1.04890E+00   5.35444E-01   1.15321E+00
 8.82500E+00   2.15349E+00   1.04889E+00   5.35484E-01   1.15316E+00
 8.87500E+00   2.15322E+00   1.04888E+00   5.35526E-01   1.15311E+00
 8.92500E+00   2.15295E+00   1.04887E+00   5.35571E-01   1.15306E+00
 8.97500E+00   2.15268E+00   1.04886E+00   5.35618E-01   1.15301E+00
 9.02500E+00   2.15240E+00   1.04885E+00   5.35667E-01   1.15297E+00
 9.07500E+00   2.15213E+00   1.04885E+00   5.35717E-01   1.15293E+00
 9.12500E+00   2.15186E+00   1.04884E+00   5.35770E-01   1.15290E+00
 9.17500E+00   2.15160E+00   1.04883E+00   5.35824E-01   1.15288E+00
 9.22500E+00   2.15134E+00   1.04882E+00   5.35879E-01   1.15286E+00
 9.27500E+00   2.15110E+00   1.04882E+00   5.35936E-01   1.15285E+00
 9.32500E+00   2.15087E+00   1.04881E+00   5.35994E-01   1.15285E+00
 9.37500E+00   2.15065E+00   1.04881E+00   5.36054E-01   1.15287E+00
 9.42500E+00   2.15045E+00   1.04880E+00   5.36115E-01   1.15289E+00
 9.47500E+00   2.15027E+00   1.04880E+00   5.36177E-01   1.15293E+00
 9.52500E+00   2.15011E+00   1.04880E+00   5.36240E-01   1.15297E+00
 9.57500E+00   2.14997E+00   1.04879E+00   5.36304E-01   1.15304E+00
 9.62500E+00   2.14985E+00   1.04879E+00   5.36370E-01   1.15311E+00
 9.67500E+00   2.14975E+00   1.04879E+00   5.36436E-01   1.15320E+00
 9.72500E+00   2.14967E+00   1.04879E+00   5.36503E-01   1.15330E+00
 9.77500E+00   2.14961E+00   1.04879E+00   5.36571E-01   1.15342E+00
 9.82500E+00   2.14958E+00   1.04879E+00   5.36640E-01   1.15355E+00
 9.87500E+00   2.14957E+00   1.04879E+00   5.36710E-01   1.15370E+00
 9.92500E+00   2.14959E+00   1.04879E+00   5.36780E-01   1.15385E+00
 9.97500E+00   2.14962E+00   1.04879E+00   5.36851E-01   1.15403E+00
 1.00250E+01   2.14968E+00   1.04880E+00   5.36923E-01   1.15421E+00
 1.00750E+01   2.14977E+00   1.04880E+00   5.36996E-01   1.15442E+00
 1.01250E+01   2.14987E+00   1.04881E+00   5.37069E-01   1.15463E+00
 1.01750E+01   2.15000E+00   1.04881E+00   5.37142E-01   1.15486E+00
 1.02250E+01   2.15015E+00   1.04882E+00   5.37216E-01   1.15510E+00
 1.02750E+01   2.15032E+00   1.04882E+00   5.37291E-01   1.15535E+00
 1.03250E+01   2.15051E+00   1.04883E+00   5.37366E-01   1.15561E+00
 1.03750E+01   2.15072E+00   1.04884E+00   5.37442E-01   1.15589E+00
 1.04250E+01   2.15095E+00   1.04885E+00   5.37519E-01   1.15618E+00
 1.04750E+01   2.15120E+00   1.04886E+00   5.37595E-01   1.15647E+00
 1.05250E+01   2.15146E+00   1.04887E+00   5.37673E-01   1.15678E+00
 1.05750E+01   2.15174E+00   1.04888E+00   5.37750E-01   1.15710E+00
 1.06250E+01   2.15203E+00   1.04890E+00   5.37828E-01   1.15742E+00
 1.06750E+01   2.15234E+00   1.04891E+00   5.37905E-01   1.15775E+00
 1.07250E+01   2.15265E+00   1.04893E+00   5.37983E-01   1.15809E+00
 1.07750E+01   2.15298E+00   1.04895E+00   5.38061E-01   1.15844E+00
 1.08250E+01   2.15332E+00   1.04897E+00   5.38138E-01   1.15878E+00
 1.08750E+01   2.15366E+00   1.04899E+00   5.38216E-01   1.15913E+00
 1.09250E+01   2.15400E+00   1.04901E+00   5.38292E-01   1.15948E+00
 1.09750E+01   2.15435E+00   1.04904E+00   5.38368E-01   1.15983E+00
 1.10250E+01   2.15470E+00   1.04907E+00   5.38444E-01   1.16018E+00
 1.10750E+01   2.15505E+00   1.04910E+00   5.38519E-01   1.16053E+00
 1.11250E+01   2.15539E+00   1.04913E+00   5.38594E-01   1.16088E+00
 1.11750E+01   2.15574E+00   1.04917E+00   5.38668E-01   1.16123E+00
 1.12250E+01   2.15608E+00   1.04921E+00   5.38743E-01   1.16157E+00
 1.12750E+01   2.15643E+00   1.04925E+00   5.38818E-01   1.16192E+00
 1.13250E+01   2.15677E+00   1.04930E+00   5.38894E-01   1.16227E+00
 1.13750E+01   2.15712E+00   1.04934E+00   5.38969E-01   1.16262E+00
 1.14250E+01   2.15746E+00   1.04938E+00   5.39046E-01   1.16297E+00
 1.14750E+01   2.15779E+00   1.04943E+00   5.39123E-01   1.16332E+00
 1.15250E+01   2.15813E+00   1.04947E+00   5.39200E-01   1.16366E+00
 1.15750E+01   2.15846E+00   1.04952E+00   5.39278E-01   1.16401E+00
 1.16250E+01   2.15879E+00   1.04956E+00   5.39357E-01   1.16436E+00
 1.16750E+01   2.15910E+00   1.04961E+00   5.39437E-01   1.16470E+00
 1.17250E+01   2.15942E+00   1.04965E+00   5.39517E-01   1.16504E+00
 1.17750E+01   2.15972E+00   1.04969E+00   5.39599E-01   1.16538E+00
 1.18250E+01   2.16002E+00   1.04974E+00   5.39682E-01   1.16572E+00
 1.18750E+01   2.16031E+00   1.04978E+00   5.39765E-01   1.16606E+00
 1.19250E+01   2.16058E+00   1.04982E+00   5.39850E-01   1.16639E+00
 1.19750E+01   2.16085E+00   1.04986E+00   5.39936E-01   1.16672E+00
 1.20250E+01   2.16110E+00   1.04990E+00   5.40023E-01   1.16705E+00
 1.20750E+01   2.16135E+00   1.04994E+00   5.40111E-01   1.16737E+00
 1.21250E+01   2.16158E+00   1.04998E+00   5.40202E-01   1.16769E+00
 1.21750E+01   2.16180E+00   1.05002E+00   5.40293E-01   1.16800E+00
 1.22250E+01   2.16201E+00   1.05006E+00   5.40386E-01   1.16832E+00
 1.22750E+01   2.16220E+00   1.05010E+00   5.40480E-01   1.16863E+00
 1.23250E+01   2.16238E+00   1.05014E+00   5.40577E-01   1.16893E+00
 1.23750E+01   2.16255E+00   1.05017E+00   5.40674E-01   1.16923E+00
 1.24250E+01   2.16271E+00   1.05021E+00   5.40773E-01   1.16953E+00
 1.24750E+01   2.16285E+00   1.05024E+00   5.40874E-01   1.16983E+00
 1.25250E+01   2.16299E+00   1.05028E+00   5.40976E-01   1.17012E+00
 1.25750E+01   2.16311E+00   1.05031E+00   5.41081E-01   1.17042E+00
 1.26250E+01   2.16322E+00   1.05035E+00   5.41188E-01   1.17071E+00
 1.26750E+01   2.16332E+00   1.05038E+00   5.41297E-01   1.17100E+00
 1.27250E+01   2.16342E+00   1.05042E+00   5.41408E-01   1.17129E+00
 1.27750E+01   2.16350E+00   1.05045E+00   5.41521E-01   1.17158E+00
 1.28250E+01   2.16358E+00   1.05049E+00   5.41636E-01   1.17188E+00
 1.28750E+01   2.16366E+00   1.05052E+00   5.41754E-01   1.17217E+00
 1.29250E+01   2.16373E+00   1.05055E+00   5.41874E-01   1.17247E+00
 1.29750E+01   2.16379E+00   1.05059E+00   5.41996E-01   1.17277E+00
 1.30250E+01   2.16386E+00   1.05062E+00   5.42122E-01   1.17307E+00
 1.30750E+01   2.16392E+00   1.05066E+00   5.42250E-01   1.17338E+00
 1.31250E+01   2.16398E+00   1.05069E+00   5.42380E-01   1.17370E+00
 1.31750E+01   2.16404E+00   1.05073E+00   5.42514E-01   1.17402E+00
 1.32250E+01   2.16411E+00   1.05076E+00   5.42650E-01   1.17435E+00
 1.32750E+01   2.16418E+00   1.05080E+00   5.42790E-01   1.17469E+00
 1.33250E+01   2.16425E+00   1.05083E+00   5.42932E-01   1.17504E+00
 1.33750E+01   2.16434E+00   1.05087E+00   5.43078E-01   1.17540E+00
 1.34250E+01   2.16443E+00   1.05091E+00   5.43227E-01   1.17578E+00
 1.34750E+01   2.16453E+00   1.05095E+00   5.43380E-01   1.17616E+00
 1.35250E+01   2.16463E+00   1.05099E+00   5.43536E-01   1.17656E+00
 1.35750E+01   2.16476E+00   1.05103E+00   5.43695E-01   1.17697E+00
 1.36250E+01   2.16489E+00   1.05107E+00   5.43858E-01   1.17739E+00
 1.36750E+01   2.16504E+00   1.05111E+00   5.44025E-01   1.17784E+00
 1.37250E+01   2.16521E+00   1.05115E+00   5.44196E-01   1.17830E+00
 1.37750E+01   2.16539E+00   1.05119E+00   5.44370E-01   1.17877E+00
 1.38250E+01   2.16558E+00   1.05124E+00   5.44549E-01   1.17927E+00
 1.38750E+01   2.16580E+00   1.05128E+00   5.44732E-01   1.17978E+00
 1.39250E+01   2.16603E+00   1.05133E+00   5.44919E-01   1.18031E+00
 1.39750E+01   2.16629E+00   1.05138E+00   5.45111E-01   1.18087E+00
 1.40250E+01   2.16656E+00   1.05143E+00   5.45307E-01   1.18144E+00
 1.40750E+01   2.16685E+00   1.05147E+00   5.45508E-01   1.18203E+00
 1.41250E+01   2.16716E+00   1.05153E+00   5.45713E-01   1.18265E+00
 1.41750E+01   2.16750E+00   1.05158E+00   5.45922E-01   1.18329E+00
 1.42250E+01   2.16786E+00   1.05163E+00   5.46136E-01   1.18394E+00
 1.42750E+01   2.16823E+00   1.05169E+00   5.46355E-01   1.18462E+00
 1.43250E+01   2.16863E+00   1.05174E+00   5.46578E-01   1.18533E+00
 1.43750E+01   2.16905E+00   1.05180E+00   5.46806E-01   1.18605E+00
 1.44250E+01   2.16949E+00   1.05186E+00   5.47038E-01   1.18680E+00
 1.44750E+01   2.16996E+00   1.05192E+00   5.47275E-01   1.18756E+00
 1.45250E+01   2.17044E+00   1.05198E+00   5.47517E-01   1.18835E+00
 1.45750E+01   2.17095E+00   1.05204E+00   5.47764E-01   1.18917E+00
 1.46250E+01   2.17147E+00   1.05211E+00   5.48015E-01   1.19000E+00
 1.46750E+01   2.17202E+00   1.05217E+00   5.48270E-01   1.19085E+00
 1.47250E+01   2.17258E+00   1.05224E+00   5.48530E-01   1.19172E+00
 1.47750E+01   2.17316E+00   1.05231E+00   5.48794E-01   1.19262E+00
 1.48250E+01   2.17376E+00   1.05238E+00   5.49063E-01   1.19353E+00
 1.48750E+01   2.17437E+00   1.05245E+00   5.49335E-01   1.19446E+00
 1.49250E+01   2.17500E+00   1.05252E+00   5.49611E-01   1.19540E+00
 1.49750E+01   2.17564E+00   1.05259E+00   5.49891E-01   1.19637E+00
 1.50250E+01   2.17630E+00   1.05267E+00   5.50175E-01   1.19735E+00
 1.50750E+01   2.17697E+00   1.05274E+00   5.50462E-01   1.19834E+00
 1.51250E+01   2.17765E+00   1.05282E+00   5.50752E-01   1.19934E+00
 1.51750E+01   2.17834E+00   1.05290E+00   5.51045E-01   1.20036E+00
 1.52250E+01   2.17904E+00   1.05297E+00   5.51340E-01   1.20139E+00
 1.52750E+01   2.17974E+00   1.05305E+00   5.51638E-01   1.20243E+00
 1.53250E+01   2.18045E+00   1.05313E+00   5.51937E-01   1.20347E+00
