      xx/10.          rhoa          temp           vel      vel*rhoa
         [-]           [-]           [-]           [-]           [-]
 1.02500E+00   2.53976E+00   9.15318E-01   5.01306E-01   1.27320E+00
 1.07500E+00   2.53699E+00   9.16593E-01   5.01409E-01   1.27207E+00
 1.12500E+00   2.53364E+00   9.18122E-01   5.01563E-01   1.27078E+00
 1.17500E+00   2.52955E+00   9.19902E-01   5.01819E-01   1.26938E+00
 1.22500E+00   2.52469E+00   9.21919E-01   5.02208E-01   1.26792E+00
 1.27500E+00   2.51909E+00   9.24142E-01   5.02751E-01   1.26648E+00
 1.32500E+00   2.51283E+00   9.26526E-01   5.03459E-01   1.26511E+00
 1.37500E+00   2.50604E+00   9.29017E-01   5.04337E-01   1.26389E+00
 1.42500E+00   2.49887E+00   9.31556E-01   5.05380E-01   1.26288E+00
 1.47500E+00   2.49148E+00   9.34083E-01   5.06577E-01   1.26213E+00
 1.52500E+00   2.48405E+00   9.36543E-01   5.07910E-01   1.26167E+00
 1.57500E+00   2.47669E+00   9.38893E-01   5.09356E-01   1.26152E+00
 1.62500E+00   2.46952E+00   9.41104E-01   5.10892E-01   1.26166E+00
 1.67500E+00   2.46261E+00   9.43157E-01   5.12490E-01   1.26207E+00
 1.72500E+00   2.45600E+00   9.45046E-01   5.14128E-01   1.26270E+00
 1.77500E+00   2.44967E+00   9.46780E-01   5.15779E-01   1.26349E+00
 1.82500E+00   2.44360E+00   9.48379E-01   5.17425E-01   1.26438E+00
 1.87500E+00   2.43772E+00   9.49872E-01   5.19047E-01   1.26529E+00
 1.92500E+00   2.43192E+00   9.51298E-01   5.20630E-01   1.26613E+00
 1.97500E+00   2.42610E+00   9.52700E-01   5.22164E-01   1.26682E+00
 2.02500E+00   2.42013E+00   9.54127E-01   5.23643E-01   1.26729E+00
 2.07500E+00   2.41389E+00   9.55626E-01   5.25063E-01   1.26744E+00
 2.12500E+00   2.40722E+00   9.57244E-01   5.26425E-01   1.26722E+00
 2.17500E+00   2.40003E+00   9.59028E-01   5.27730E-01   1.26657E+00
 2.22500E+00   2.39218E+00   9.61016E-01   5.28984E-01   1.26543E+00
 2.27500E+00   2.38360E+00   9.63243E-01   5.30194E-01   1.26377E+00
 2.32500E+00   2.37420E+00   9.65732E-01   5.31366E-01   1.26157E+00
 2.37500E+00   2.36396E+00   9.68502E-01   5.32510E-01   1.25883E+00
 2.42500E+00   2.35284E+00   9.71558E-01   5.33632E-01   1.25555E+00
 2.47500E+00   2.34087E+00   9.74896E-01   5.34740E-01   1.25176E+00
 2.52500E+00   2.32811E+00   9.78502E-01   5.35841E-01   1.24750E+00
 2.57500E+00   2.31462E+00   9.82350E-01   5.36940E-01   1.24281E+00
 2.62500E+00   2.30053E+00   9.86405E-01   5.38038E-01   1.23777E+00
 2.67500E+00   2.28597E+00   9.90622E-01   5.39135E-01   1.23245E+00
 2.72500E+00   2.27110E+00   9.94950E-01   5.40231E-01   1.22692E+00
 2.77500E+00   2.25610E+00   9.99333E-01   5.41321E-01   1.22128E+00
 2.82500E+00   2.24115E+00   1.00371E+00   5.42399E-01   1.21560E+00
 2.87500E+00   2.22644E+00   1.00802E+00   5.43458E-01   1.20998E+00
 2.92500E+00   2.21214E+00   1.01221E+00   5.44490E-01   1.20449E+00
 2.97500E+00   2.19843E+00   1.01622E+00   5.45484E-01   1.19921E+00
 3.02500E+00   2.18544E+00   1.02001E+00   5.46433E-01   1.19420E+00
 3.07500E+00   2.17329E+00   1.02354E+00   5.47327E-01   1.18950E+00
 3.12500E+00   2.16206E+00   1.02679E+00   5.48159E-01   1.18515E+00
 3.17500E+00   2.15182E+00   1.02973E+00   5.48924E-01   1.18118E+00
 3.22500E+00   2.14258E+00   1.03237E+00   5.49618E-01   1.17760E+00
 3.27500E+00   2.13434E+00   1.03470E+00   5.50240E-01   1.17440E+00
 3.32500E+00   2.12707E+00   1.03674E+00   5.50790E-01   1.17157E+00
 3.37500E+00   2.12073E+00   1.03851E+00   5.51271E-01   1.16910E+00
 3.42500E+00   2.11526E+00   1.04002E+00   5.51686E-01   1.16696E+00
 3.47500E+00   2.11059E+00   1.04130E+00   5.52041E-01   1.16513E+00
 3.52500E+00   2.10663E+00   1.04237E+00   5.52342E-01   1.16358E+00
 3.57500E+00   2.10332E+00   1.04326E+00   5.52594E-01   1.16228E+00
 3.62500E+00   2.10057E+00   1.04400E+00   5.52803E-01   1.16120E+00
 3.67500E+00   2.09832E+00   1.04460E+00   5.52977E-01   1.16032E+00
 3.72500E+00   2.09649E+00   1.04509E+00   5.53120E-01   1.15961E+00
 3.77500E+00   2.09504E+00   1.04548E+00   5.53238E-01   1.15905E+00
 3.82500E+00   2.09389E+00   1.04580E+00   5.53335E-01   1.15863E+00
 3.87500E+00   2.09302E+00   1.04605E+00   5.53417E-01   1.15831E+00
 3.92500E+00   2.09237E+00   1.04626E+00   5.53486E-01   1.15810E+00
 3.97500E+00   2.09191E+00   1.04642E+00   5.53545E-01   1.15797E+00
 4.02500E+00   2.09162E+00   1.04655E+00   5.53598E-01   1.15792E+00
 4.07500E+00   2.09146E+00   1.04665E+00   5.53646E-01   1.15793E+00
 4.12500E+00   2.09142E+00   1.04673E+00   5.53690E-01   1.15800E+00
 4.17500E+00   2.09149E+00   1.04679E+00   5.53733E-01   1.15812E+00
 4.22500E+00   2.09164E+00   1.04685E+00   5.53775E-01   1.15830E+00
 4.27500E+00   2.09186E+00   1.04689E+00   5.53816E-01   1.15851E+00
 4.32500E+00   2.09215E+00   1.04693E+00   5.53859E-01   1.15876E+00
 4.37500E+00   2.09249E+00   1.04696E+00   5.53903E-01   1.15904E+00
 4.42500E+00   2.09288E+00   1.04699E+00   5.53947E-01   1.15935E+00
 4.47500E+00   2.09332E+00   1.04701E+00   5.53994E-01   1.15968E+00
 4.52500E+00   2.09378E+00   1.04704E+00   5.54042E-01   1.16004E+00
 4.57500E+00   2.09427E+00   1.04706E+00   5.54092E-01   1.16042E+00
 4.62500E+00   2.09479E+00   1.04708E+00   5.54144E-01   1.16081E+00
 4.67500E+00   2.09532E+00   1.04709E+00   5.54198E-01   1.16122E+00
 4.72500E+00   2.09586E+00   1.04711E+00   5.54253E-01   1.16164E+00
 4.77500E+00   2.09640E+00   1.04713E+00   5.54311E-01   1.16206E+00
 4.82500E+00   2.09694E+00   1.04714E+00   5.54370E-01   1.16248E+00
 4.87500E+00   2.09747E+00   1.04716E+00   5.54432E-01   1.16290E+00
 4.92500E+00   2.09799E+00   1.04717E+00   5.54494E-01   1.16332E+00
 4.97500E+00   2.09849E+00   1.04718E+00   5.54559E-01   1.16373E+00
 5.02500E+00   2.09896E+00   1.04719E+00   5.54624E-01   1.16414E+00
 5.07500E+00   2.09941E+00   1.04720E+00   5.54692E-01   1.16453E+00
 5.12500E+00   2.09982E+00   1.04721E+00   5.54761E-01   1.16490E+00
 5.17500E+00   2.10020E+00   1.04722E+00   5.54832E-01   1.16526E+00
 5.22500E+00   2.10054E+00   1.04723E+00   5.54904E-01   1.16560E+00
 5.27500E+00   2.10084E+00   1.04723E+00   5.54977E-01   1.16592E+00
 5.32500E+00   2.10109E+00   1.04724E+00   5.55052E-01   1.16621E+00
 5.37500E+00   2.10129E+00   1.04724E+00   5.55129E-01   1.16649E+00
 5.42500E+00   2.10145E+00   1.04725E+00   5.55206E-01   1.16674E+00
 5.47500E+00   2.10156E+00   1.04725E+00   5.55285E-01   1.16697E+00
 5.52500E+00   2.10163E+00   1.04725E+00   5.55366E-01   1.16717E+00
 5.57500E+00   2.10165E+00   1.04725E+00   5.55448E-01   1.16736E+00
 5.62500E+00   2.10164E+00   1.04724E+00   5.55531E-01   1.16752E+00
 5.67500E+00   2.10159E+00   1.04724E+00   5.55615E-01   1.16767E+00
 5.72500E+00   2.10150E+00   1.04724E+00   5.55700E-01   1.16780E+00
 5.77500E+00   2.10138E+00   1.04724E+00   5.55787E-01   1.16792E+00
 5.82500E+00   2.10125E+00   1.04724E+00   5.55875E-01   1.16803E+00
 5.87500E+00   2.10109E+00   1.04723E+00   5.55965E-01   1.16813E+00
 5.92500E+00   2.10091E+00   1.04723E+00   5.56055E-01   1.16822E+00
 5.97500E+00   2.10073E+00   1.04723E+00   5.56148E-01   1.16832E+00
 6.02500E+00   2.10054E+00   1.04723E+00   5.56241E-01   1.16841E+00
 6.07500E+00   2.10035E+00   1.04723E+00   5.56336E-01   1.16850E+00
 6.12500E+00   2.10017E+00   1.04723E+00   5.56432E-01   1.16860E+00
 6.17500E+00   2.10000E+00   1.04723E+00   5.56529E-01   1.16871E+00
 6.22500E+00   2.09984E+00   1.04723E+00   5.56627E-01   1.16883E+00
 6.27500E+00   2.09969E+00   1.04724E+00   5.56726E-01   1.16895E+00
 6.32500E+00   2.09956E+00   1.04725E+00   5.56826E-01   1.16909E+00
 6.37500E+00   2.09944E+00   1.04727E+00   5.56927E-01   1.16923E+00
 6.42500E+00   2.09934E+00   1.04729E+00   5.57028E-01   1.16939E+00
 6.47500E+00   2.09925E+00   1.04732E+00   5.57129E-01   1.16955E+00
 6.52500E+00   2.09917E+00   1.04735E+00   5.57231E-01   1.16972E+00
 6.57500E+00   2.09910E+00   1.04740E+00   5.57334E-01   1.16990E+00
 6.62500E+00   2.09904E+00   1.04746E+00   5.57438E-01   1.17009E+00
 6.67500E+00   2.09900E+00   1.04752E+00   5.57544E-01   1.17029E+00
 6.72500E+00   2.09898E+00   1.04759E+00   5.57651E-01   1.17050E+00
 6.77500E+00   2.09897E+00   1.04767E+00   5.57759E-01   1.17072E+00
 6.82500E+00   2.09898E+00   1.04776E+00   5.57868E-01   1.17096E+00
 6.87500E+00   2.09901E+00   1.04785E+00   5.57978E-01   1.17120E+00
 6.92500E+00   2.09907E+00   1.04796E+00   5.58090E-01   1.17147E+00
 6.97500E+00   2.09913E+00   1.04806E+00   5.58203E-01   1.17174E+00
 7.02500E+00   2.09922E+00   1.04818E+00   5.58318E-01   1.17203E+00
 7.07500E+00   2.09931E+00   1.04830E+00   5.58435E-01   1.17233E+00
 7.12500E+00   2.09943E+00   1.04842E+00   5.58553E-01   1.17264E+00
 7.17500E+00   2.09955E+00   1.04855E+00   5.58673E-01   1.17296E+00
 7.22500E+00   2.09969E+00   1.04868E+00   5.58794E-01   1.17329E+00
 7.27500E+00   2.09983E+00   1.04882E+00   5.58918E-01   1.17364E+00
 7.32500E+00   2.09999E+00   1.04896E+00   5.59044E-01   1.17398E+00
 7.37500E+00   2.10014E+00   1.04910E+00   5.59172E-01   1.17434E+00
 7.42500E+00   2.10030E+00   1.04925E+00   5.59303E-01   1.17470E+00
 7.47500E+00   2.10046E+00   1.04940E+00   5.59436E-01   1.17507E+00
 7.52500E+00   2.10061E+00   1.04955E+00   5.59572E-01   1.17544E+00
 7.57500E+00   2.10076E+00   1.04970E+00   5.59711E-01   1.17582E+00
 7.62500E+00   2.10091E+00   1.04986E+00   5.59853E-01   1.17620E+00
 7.67500E+00   2.10105E+00   1.05002E+00   5.59998E-01   1.17658E+00
 7.72500E+00   2.10118E+00   1.05018E+00   5.60146E-01   1.17697E+00
 7.77500E+00   2.10130E+00   1.05035E+00   5.60298E-01   1.17735E+00
 7.82500E+00   2.10141E+00   1.05051E+00   5.60453E-01   1.17774E+00
 7.87500E+00   2.10151E+00   1.05068E+00   5.60613E-01   1.17813E+00
 7.92500E+00   2.10160E+00   1.05085E+00   5.60776E-01   1.17853E+00
 7.97500E+00   2.10167E+00   1.05102E+00   5.60944E-01   1.17892E+00
 8.02500E+00   2.10174E+00   1.05120E+00   5.61115E-01   1.17932E+00
 8.07500E+00   2.10179E+00   1.05137E+00   5.61291E-01   1.17972E+00
 8.12500E+00   2.10184E+00   1.05155E+00   5.61472E-01   1.18012E+00
 8.17500E+00   2.10187E+00   1.05173E+00   5.61657E-01   1.18053E+00
 8.22500E+00   2.10189E+00   1.05191E+00   5.61847E-01   1.18094E+00
 8.27500E+00   2.10191E+00   1.05209E+00   5.62041E-01   1.18136E+00
 8.32500E+00   2.10192E+00   1.05228E+00   5.62241E-01   1.18179E+00
 8.37500E+00   2.10193E+00   1.05247E+00   5.62445E-01   1.18222E+00
 8.42500E+00   2.10193E+00   1.05266E+00   5.62655E-01   1.18266E+00
 8.47500E+00   2.10193E+00   1.05285E+00   5.62869E-01   1.18311E+00
 8.52500E+00   2.10193E+00   1.05305E+00   5.63089E-01   1.18358E+00
 8.57500E+00   2.10194E+00   1.05324E+00   5.63313E-01   1.18405E+00
 8.62500E+00   2.10194E+00   1.05344E+00   5.63543E-01   1.18453E+00
 8.67500E+00   2.10195E+00   1.05365E+00   5.63777E-01   1.18503E+00
 8.72500E+00   2.10197E+00   1.05385E+00   5.64017E-01   1.18555E+00
 8.77500E+00   2.10200E+00   1.05406E+00   5.64260E-01   1.18607E+00
 8.82500E+00   2.10203E+00   1.05426E+00   5.64508E-01   1.18662E+00
 8.87500E+00   2.10208E+00   1.05447E+00   5.64761E-01   1.18717E+00
 8.92500E+00   2.10214E+00   1.05469E+00   5.65017E-01   1.18774E+00
 8.97500E+00   2.10220E+00   1.05490E+00   5.65277E-01   1.18833E+00
 9.02500E+00   2.10228E+00   1.05512E+00   5.65540E-01   1.18892E+00
 9.07500E+00   2.10237E+00   1.05533E+00   5.65805E-01   1.18953E+00
 9.12500E+00   2.10248E+00   1.05555E+00   5.66073E-01   1.19016E+00
 9.17500E+00   2.10259E+00   1.05577E+00   5.66343E-01   1.19079E+00
 9.22500E+00   2.10272E+00   1.05600E+00   5.66613E-01   1.19143E+00
 9.27500E+00   2.10285E+00   1.05622E+00   5.66884E-01   1.19207E+00
 9.32500E+00   2.10299E+00   1.05644E+00   5.67155E-01   1.19272E+00
 9.37500E+00   2.10314E+00   1.05666E+00   5.67425E-01   1.19338E+00
 9.42500E+00   2.10330E+00   1.05689E+00   5.67693E-01   1.19403E+00
 9.47500E+00   2.10345E+00   1.05711E+00   5.67959E-01   1.19467E+00
 9.52500E+00   2.10361E+00   1.05733E+00   5.68221E-01   1.19532E+00
 9.57500E+00   2.10377E+00   1.05756E+00   5.68478E-01   1.19595E+00
 9.62500E+00   2.10392E+00   1.05778E+00   5.68731E-01   1.19656E+00
 9.67500E+00   2.10407E+00   1.05800E+00   5.68977E-01   1.19717E+00
 9.72500E+00   2.10420E+00   1.05822E+00   5.69216E-01   1.19775E+00
 9.77500E+00   2.10433E+00   1.05843E+00   5.69446E-01   1.19830E+00
 9.82500E+00   2.10444E+00   1.05864E+00   5.69667E-01   1.19883E+00
 9.87500E+00   2.10453E+00   1.05886E+00   5.69877E-01   1.19932E+00
 9.92500E+00   2.10460E+00   1.05906E+00   5.70075E-01   1.19978E+00
 9.97500E+00   2.10465E+00   1.05927E+00   5.70260E-01   1.20020E+00
 1.00250E+01   2.10467E+00   1.05947E+00   5.70431E-01   1.20057E+00
 1.00750E+01   2.10466E+00   1.05966E+00   5.70587E-01   1.20089E+00
 1.01250E+01   2.10462E+00   1.05986E+00   5.70727E-01   1.20116E+00
 1.01750E+01   2.10455E+00   1.06004E+00   5.70850E-01   1.20138E+00
 1.02250E+01   2.10444E+00   1.06022E+00   5.70953E-01   1.20154E+00
 1.02750E+01   2.10430E+00   1.06040E+00   5.71038E-01   1.20163E+00
 1.03250E+01   2.10411E+00   1.06057E+00   5.71102E-01   1.20166E+00
 1.03750E+01   2.10389E+00   1.06073E+00   5.71146E-01   1.20163E+00
 1.04250E+01   2.10362E+00   1.06089E+00   5.71167E-01   1.20152E+00
 1.04750E+01   2.10332E+00   1.06104E+00   5.71167E-01   1.20134E+00
 1.05250E+01   2.10296E+00   1.06118E+00   5.71143E-01   1.20109E+00
 1.05750E+01   2.10257E+00   1.06132E+00   5.71096E-01   1.20077E+00
 1.06250E+01   2.10213E+00   1.06145E+00   5.71025E-01   1.20037E+00
 1.06750E+01   2.10165E+00   1.06157E+00   5.70929E-01   1.19989E+00
 1.07250E+01   2.10113E+00   1.06169E+00   5.70809E-01   1.19934E+00
 1.07750E+01   2.10056E+00   1.06179E+00   5.70665E-01   1.19872E+00
 1.08250E+01   2.09995E+00   1.06189E+00   5.70497E-01   1.19802E+00
 1.08750E+01   2.09931E+00   1.06198E+00   5.70304E-01   1.19724E+00
 1.09250E+01   2.09862E+00   1.06207E+00   5.70088E-01   1.19640E+00
 1.09750E+01   2.09790E+00   1.06214E+00   5.69849E-01   1.19548E+00
 1.10250E+01   2.09714E+00   1.06221E+00   5.69586E-01   1.19450E+00
 1.10750E+01   2.09635E+00   1.06227E+00   5.69302E-01   1.19346E+00
 1.11250E+01   2.09553E+00   1.06233E+00   5.68997E-01   1.19235E+00
 1.11750E+01   2.09468E+00   1.06238E+00   5.68672E-01   1.19118E+00
 1.12250E+01   2.09380E+00   1.06242E+00   5.68327E-01   1.18996E+00
 1.12750E+01   2.09290E+00   1.06245E+00   5.67964E-01   1.18869E+00
 1.13250E+01   2.09198E+00   1.06248E+00   5.67585E-01   1.18738E+00
 1.13750E+01   2.09104E+00   1.06250E+00   5.67190E-01   1.18602E+00
 1.14250E+01   2.09009E+00   1.06252E+00   5.66780E-01   1.18462E+00
 1.14750E+01   2.08912E+00   1.06253E+00   5.66358E-01   1.18319E+00
 1.15250E+01   2.08815E+00   1.06254E+00   5.65924E-01   1.18173E+00
 1.15750E+01   2.08716E+00   1.06254E+00   5.65481E-01   1.18025E+00
 1.16250E+01   2.08617E+00   1.06254E+00   5.65028E-01   1.17875E+00
 1.16750E+01   2.08518E+00   1.06254E+00   5.64569E-01   1.17723E+00
 1.17250E+01   2.08419E+00   1.06253E+00   5.64104E-01   1.17570E+00
 1.17750E+01   2.08319E+00   1.06252E+00   5.63635E-01   1.17416E+00
 1.18250E+01   2.08221E+00   1.06250E+00   5.63163E-01   1.17262E+00
 1.18750E+01   2.08123E+00   1.06249E+00   5.62690E-01   1.17109E+00
 1.19250E+01   2.08025E+00   1.06247E+00   5.62217E-01   1.16955E+00
 1.19750E+01   2.07929E+00   1.06245E+00   5.61746E-01   1.16803E+00
 1.20250E+01   2.07835E+00   1.06243E+00   5.61278E-01   1.16653E+00
 1.20750E+01   2.07741E+00   1.06241E+00   5.60814E-01   1.16504E+00
 1.21250E+01   2.07649E+00   1.06239E+00   5.60355E-01   1.16357E+00
 1.21750E+01   2.07559E+00   1.06237E+00   5.59903E-01   1.16213E+00
 1.22250E+01   2.07470E+00   1.06236E+00   5.59458E-01   1.16071E+00
 1.22750E+01   2.07384E+00   1.06234E+00   5.59021E-01   1.15932E+00
 1.23250E+01   2.07299E+00   1.06232E+00   5.58593E-01   1.15796E+00
 1.23750E+01   2.07217E+00   1.06230E+00   5.58175E-01   1.15663E+00
 1.24250E+01   2.07137E+00   1.06229E+00   5.57767E-01   1.15534E+00
 1.24750E+01   2.07059E+00   1.06227E+00   5.57371E-01   1.15408E+00
 1.25250E+01   2.06983E+00   1.06226E+00   5.56986E-01   1.15287E+00
 1.25750E+01   2.06910E+00   1.06225E+00   5.56613E-01   1.15169E+00
 1.26250E+01   2.06839E+00   1.06224E+00   5.56252E-01   1.15055E+00
 1.26750E+01   2.06771E+00   1.06224E+00   5.55903E-01   1.14945E+00
 1.27250E+01   2.06706E+00   1.06223E+00   5.55568E-01   1.14839E+00
 1.27750E+01   2.06643E+00   1.06223E+00   5.55245E-01   1.14737E+00
 1.28250E+01   2.06582E+00   1.06223E+00   5.54936E-01   1.14640E+00
 1.28750E+01   2.06524E+00   1.06224E+00   5.54640E-01   1.14547E+00
 1.29250E+01   2.06469E+00   1.06224E+00   5.54356E-01   1.14458E+00
 1.29750E+01   2.06417E+00   1.06225E+00   5.54086E-01   1.14373E+00
 1.30250E+01   2.06367E+00   1.06226E+00   5.53829E-01   1.14292E+00
 1.30750E+01   2.06319E+00   1.06227E+00   5.53584E-01   1.14215E+00
 1.31250E+01   2.06274E+00   1.06229E+00   5.53352E-01   1.14142E+00
 1.31750E+01   2.06231E+00   1.06230E+00   5.53132E-01   1.14073E+00
 1.32250E+01   2.06191E+00   1.06232E+00   5.52924E-01   1.14008E+00
 1.32750E+01   2.06153E+00   1.06235E+00   5.52727E-01   1.13947E+00
 1.33250E+01   2.06118E+00   1.06237E+00   5.52542E-01   1.13889E+00
 1.33750E+01   2.06085E+00   1.06240E+00   5.52368E-01   1.13835E+00
 1.34250E+01   2.06054E+00   1.06242E+00   5.52205E-01   1.13784E+00
 1.34750E+01   2.06026E+00   1.06245E+00   5.52052E-01   1.13737E+00
 1.35250E+01   2.06000E+00   1.06249E+00   5.51910E-01   1.13693E+00
 1.35750E+01   2.05975E+00   1.06252E+00   5.51777E-01   1.13652E+00
 1.36250E+01   2.05953E+00   1.06255E+00   5.51653E-01   1.13615E+00
 1.36750E+01   2.05933E+00   1.06259E+00   5.51539E-01   1.13580E+00
 1.37250E+01   2.05915E+00   1.06263E+00   5.51433E-01   1.13548E+00
 1.37750E+01   2.05899E+00   1.06267E+00   5.51335E-01   1.13519E+00
 1.38250E+01   2.05885E+00   1.06271E+00   5.51245E-01   1.13493E+00
 1.38750E+01   2.05872E+00   1.06276E+00   5.51164E-01   1.13469E+00
 1.39250E+01   2.05861E+00   1.06280E+00   5.51089E-01   1.13448E+00
 1.39750E+01   2.05852E+00   1.06285E+00   5.51022E-01   1.13429E+00
 1.40250E+01   2.05845E+00   1.06289E+00   5.50962E-01   1.13413E+00
 1.40750E+01   2.05839E+00   1.06294E+00   5.50908E-01   1.13398E+00
 1.41250E+01   2.05834E+00   1.06299E+00   5.50860E-01   1.13386E+00
 1.41750E+01   2.05831E+00   1.06304E+00   5.50819E-01   1.13376E+00
 1.42250E+01   2.05829E+00   1.06309E+00   5.50783E-01   1.13367E+00
 1.42750E+01   2.05829E+00   1.06314E+00   5.50753E-01   1.13361E+00
 1.43250E+01   2.05830E+00   1.06320E+00   5.50729E-01   1.13356E+00
 1.43750E+01   2.05832E+00   1.06325E+00   5.50709E-01   1.13353E+00
 1.44250E+01   2.05835E+00   1.06330E+00   5.50694E-01   1.13352E+00
 1.44750E+01   2.05839E+00   1.06336E+00   5.50685E-01   1.13352E+00
 1.45250E+01   2.05844E+00   1.06342E+00   5.50680E-01   1.13354E+00
 1.45750E+01   2.05851E+00   1.06347E+00   5.50679E-01   1.13358E+00
 1.46250E+01   2.05858E+00   1.06353E+00   5.50683E-01   1.13363E+00
 1.46750E+01   2.05866E+00   1.06359E+00   5.50692E-01   1.13369E+00
 1.47250E+01   2.05875E+00   1.06365E+00   5.50704E-01   1.13376E+00
 1.47750E+01   2.05885E+00   1.06371E+00   5.50721E-01   1.13385E+00
 1.48250E+01   2.05896E+00   1.06377E+00   5.50741E-01   1.13396E+00
 1.48750E+01   2.05908E+00   1.06383E+00   5.50766E-01   1.13407E+00
 1.49250E+01   2.05921E+00   1.06389E+00   5.50794E-01   1.13420E+00
 1.49750E+01   2.05934E+00   1.06395E+00   5.50825E-01   1.13434E+00
 1.50250E+01   2.05948E+00   1.06401E+00   5.50861E-01   1.13449E+00
 1.50750E+01   2.05963E+00   1.06407E+00   5.50899E-01   1.13465E+00
 1.51250E+01   2.05979E+00   1.06414E+00   5.50942E-01   1.13483E+00
 1.51750E+01   2.05996E+00   1.06420E+00   5.50987E-01   1.13501E+00
 1.52250E+01   2.06013E+00   1.06427E+00   5.51036E-01   1.13521E+00
 1.52750E+01   2.06031E+00   1.06433E+00   5.51088E-01   1.13542E+00
 1.53250E+01   2.06050E+00   1.06440E+00   5.51144E-01   1.13563E+00
