      xx/10.        Omega0        Omega1        Omega2           C_l         r_avg
         [-]       [kg^-1]     [m kg^-1]   [m^2 kg^-1]           [-]           [m]
 1.02500E+00   4.51881E+18   8.98455E+09   3.36911E+01   8.01721E-04   3.49088E-09
 1.07500E+00   5.75688E+18   1.33338E+10   5.69429E+01   1.42594E-03   3.90157E-09
 1.12500E+00   6.35508E+18   1.57827E+10   8.36293E+01   2.23976E-03   4.38829E-09
 1.17500E+00   6.63204E+18   2.11806E+10   1.15349E+02   3.23885E-03   4.89234E-09
 1.22500E+00   6.71938E+18   2.68043E+10   1.50630E+02   4.40055E-03   5.39503E-09
 1.27500E+00   6.66402E+18   3.20686E+10   1.87252E+02   5.68115E-03   5.89072E-09
 1.32500E+00   6.48859E+18   3.68657E+10   2.22594E+02   7.01998E-03   6.37769E-09
 1.37500E+00   6.21364E+18   4.00584E+10   2.53412E+02   8.34794E-03   6.85508E-09
 1.42500E+00   5.86061E+18   4.04985E+10   2.77485E+02   9.60327E-03   7.32420E-09
 1.47500E+00   5.45114E+18   4.07418E+10   2.95020E+02   1.07422E-02   7.78879E-09
 1.52500E+00   5.00593E+18   4.01246E+10   3.05733E+02   1.17378E-02   8.25344E-09
 1.57500E+00   4.54390E+18   3.84488E+10   3.09634E+02   1.25807E-02   8.72355E-09
 1.62500E+00   4.08152E+18   3.59557E+10   3.07384E+02   1.32798E-02   9.20574E-09
 1.67500E+00   3.63245E+18   3.29465E+10   3.00118E+02   1.38607E-02   9.70801E-09
 1.72500E+00   3.20749E+18   2.96784E+10   2.89208E+02   1.43617E-02   1.02396E-08
 1.77500E+00   2.81463E+18   2.63604E+10   2.76113E+02   1.48295E-02   1.08103E-08
 1.82500E+00   2.45930E+18   2.31641E+10   2.62259E+02   1.53147E-02   1.14297E-08
 1.87500E+00   2.14469E+18   2.02189E+10   2.48952E+02   1.58668E-02   1.21053E-08
 1.92500E+00   1.87218E+18   1.76143E+10   2.37317E+02   1.65300E-02   1.28404E-08
 1.97500E+00   1.64168E+18   1.54083E+10   2.28263E+02   1.73393E-02   1.36306E-08
 2.02500E+00   1.45208E+18   1.36323E+10   2.22462E+02   1.83175E-02   1.44620E-08
 2.07500E+00   1.30153E+18   1.22948E+10   2.20348E+02   1.94732E-02   1.53084E-08
 2.12500E+00   1.18780E+18   1.13865E+10   2.22121E+02   2.08000E-02   1.61327E-08
 2.17500E+00   1.10844E+18   1.08801E+10   2.27778E+02   2.22774E-02   1.68909E-08
 2.22500E+00   1.06097E+18   1.07914E+10   2.37146E+02   2.38728E-02   1.75389E-08
 2.27500E+00   1.04301E+18   1.08576E+10   2.49895E+02   2.55447E-02   1.80415E-08
 2.32500E+00   1.05231E+18   1.09224E+10   2.65725E+02   2.72469E-02   1.83792E-08
 2.37500E+00   1.08678E+18   1.15542E+10   2.84400E+02   2.89324E-02   1.85502E-08
 2.42500E+00   1.14450E+18   1.27352E+10   3.05444E+02   3.05567E-02   1.85680E-08
 2.47500E+00   1.22364E+18   1.41110E+10   3.28264E+02   3.20819E-02   1.84560E-08
 2.52500E+00   1.32247E+18   1.56313E+10   3.52340E+02   3.34788E-02   1.82416E-08
 2.57500E+00   1.43926E+18   1.73321E+10   3.77229E+02   3.47282E-02   1.79521E-08
 2.62500E+00   1.57224E+18   1.92516E+10   4.02545E+02   3.58203E-02   1.76119E-08
 2.67500E+00   1.71959E+18   2.14093E+10   4.27950E+02   3.67539E-02   1.72410E-08
 2.72500E+00   1.87935E+18   2.38149E+10   4.53141E+02   3.75342E-02   1.68555E-08
 2.77500E+00   2.04941E+18   2.64730E+10   4.77851E+02   3.81710E-02   1.64678E-08
 2.82500E+00   2.22754E+18   2.93812E+10   5.01837E+02   3.86769E-02   1.60871E-08
 2.87500E+00   2.41131E+18   3.25284E+10   5.24882E+02   3.90660E-02   1.57199E-08
 2.92500E+00   2.59817E+18   3.58975E+10   5.46787E+02   3.93521E-02   1.53710E-08
 2.97500E+00   2.78544E+18   3.94717E+10   5.67370E+02   3.95486E-02   1.50434E-08
 3.02500E+00   2.97037E+18   4.32389E+10   5.86460E+02   3.96674E-02   1.47393E-08
 3.07500E+00   3.15017E+18   4.71842E+10   6.03900E+02   3.97190E-02   1.44596E-08
 3.12500E+00   3.32209E+18   5.12704E+10   6.19543E+02   3.97126E-02   1.42050E-08
 3.17500E+00   3.48344E+18   5.54118E+10   6.33258E+02   3.96557E-02   1.39755E-08
 3.22500E+00   3.63169E+18   5.94565E+10   6.44927E+02   3.95547E-02   1.37710E-08
 3.27500E+00   3.76453E+18   6.31923E+10   6.54454E+02   3.94151E-02   1.35910E-08
 3.32500E+00   3.87989E+18   6.63813E+10   6.61768E+02   3.92414E-02   1.34352E-08
 3.37500E+00   3.97604E+18   6.88145E+10   6.66819E+02   3.90378E-02   1.33029E-08
 3.42500E+00   4.05161E+18   7.03629E+10   6.69590E+02   3.88080E-02   1.31937E-08
 3.47500E+00   4.10565E+18   7.09756E+10   6.70092E+02   3.85555E-02   1.31070E-08
 3.52500E+00   4.13761E+18   7.09979E+10   6.68366E+02   3.82838E-02   1.30424E-08
 3.57500E+00   4.14739E+18   7.09998E+10   6.64485E+02   3.79966E-02   1.29994E-08
 3.62500E+00   4.13534E+18   7.08361E+10   6.58549E+02   3.76974E-02   1.29778E-08
 3.67500E+00   4.10221E+18   6.94060E+10   6.50689E+02   3.73903E-02   1.29772E-08
 3.72500E+00   4.04915E+18   6.68995E+10   6.41065E+02   3.70791E-02   1.29974E-08
 3.77500E+00   3.97771E+18   6.36682E+10   6.29869E+02   3.67682E-02   1.30381E-08
 3.82500E+00   3.88972E+18   5.99441E+10   6.17315E+02   3.64618E-02   1.30991E-08
 3.87500E+00   3.78729E+18   5.58778E+10   6.03639E+02   3.61645E-02   1.31801E-08
 3.92500E+00   3.67276E+18   5.15842E+10   5.89096E+02   3.58808E-02   1.32808E-08
 3.97500E+00   3.54860E+18   4.71670E+10   5.73950E+02   3.56149E-02   1.34007E-08
 4.02500E+00   3.41739E+18   4.27298E+10   5.58475E+02   3.53710E-02   1.35390E-08
 4.07500E+00   3.28172E+18   3.83760E+10   5.42945E+02   3.51532E-02   1.36948E-08
 4.12500E+00   3.14419E+18   3.42031E+10   5.27631E+02   3.49649E-02   1.38668E-08
 4.17500E+00   3.00729E+18   3.02961E+10   5.12797E+02   3.48091E-02   1.40531E-08
 4.22500E+00   2.87342E+18   2.67241E+10   4.98690E+02   3.46883E-02   1.42516E-08
 4.27500E+00   2.74478E+18   2.35398E+10   4.85538E+02   3.46042E-02   1.44591E-08
 4.32500E+00   2.62340E+18   2.07818E+10   4.73547E+02   3.45580E-02   1.46722E-08
 4.37500E+00   2.51107E+18   1.84767E+10   4.62894E+02   3.45499E-02   1.48867E-08
 4.42500E+00   2.40932E+18   1.66397E+10   4.53726E+02   3.45794E-02   1.50976E-08
 4.47500E+00   2.31945E+18   1.52733E+10   4.46155E+02   3.46452E-02   1.52999E-08
 4.52500E+00   2.24248E+18   1.43656E+10   4.40263E+02   3.47452E-02   1.54878E-08
 4.57500E+00   2.17914E+18   1.38786E+10   4.36092E+02   3.48768E-02   1.56562E-08
 4.62500E+00   2.12993E+18   1.37873E+10   4.33655E+02   3.50365E-02   1.57999E-08
 4.67500E+00   2.09506E+18   1.37845E+10   4.32927E+02   3.52205E-02   1.59148E-08
 4.72500E+00   2.07452E+18   1.37817E+10   4.33857E+02   3.54245E-02   1.59979E-08
 4.77500E+00   2.06806E+18   1.40199E+10   4.36368E+02   3.56439E-02   1.60476E-08
 4.82500E+00   2.07521E+18   1.48701E+10   4.40355E+02   3.58740E-02   1.60635E-08
 4.87500E+00   2.09531E+18   1.61269E+10   4.45693E+02   3.61100E-02   1.60470E-08
 4.92500E+00   2.12755E+18   1.76770E+10   4.52233E+02   3.63473E-02   1.60005E-08
 4.97500E+00   2.17092E+18   1.94587E+10   4.59816E+02   3.65812E-02   1.59272E-08
 5.02500E+00   2.22433E+18   2.14496E+10   4.68271E+02   3.68077E-02   1.58312E-08
 5.07500E+00   2.28654E+18   2.36545E+10   4.77418E+02   3.70229E-02   1.57168E-08
 5.12500E+00   2.35626E+18   2.60907E+10   4.87076E+02   3.72234E-02   1.55883E-08
 5.17500E+00   2.43209E+18   2.87795E+10   4.97062E+02   3.74062E-02   1.54498E-08
 5.22500E+00   2.51264E+18   3.17404E+10   5.07198E+02   3.75689E-02   1.53050E-08
 5.27500E+00   2.59646E+18   3.49872E+10   5.17310E+02   3.77098E-02   1.51574E-08
 5.32500E+00   2.68211E+18   3.85216E+10   5.27233E+02   3.78275E-02   1.50099E-08
 5.37500E+00   2.76817E+18   4.23246E+10   5.36815E+02   3.79212E-02   1.48650E-08
 5.42500E+00   2.85327E+18   4.63455E+10   5.45915E+02   3.79910E-02   1.47247E-08
 5.47500E+00   2.93608E+18   5.04929E+10   5.54411E+02   3.80370E-02   1.45909E-08
 5.52500E+00   3.01535E+18   5.46331E+10   5.62198E+02   3.80605E-02   1.44648E-08
 5.57500E+00   3.08993E+18   5.85985E+10   5.69195E+02   3.80627E-02   1.43478E-08
 5.62500E+00   3.15876E+18   6.22076E+10   5.75346E+02   3.80461E-02   1.42407E-08
 5.67500E+00   3.22092E+18   6.52885E+10   5.80570E+02   3.80106E-02   1.41441E-08
 5.72500E+00   3.27561E+18   6.77072E+10   5.84796E+02   3.79560E-02   1.40582E-08
 5.77500E+00   3.32217E+18   6.93833E+10   5.87977E+02   3.78831E-02   1.39833E-08
 5.82500E+00   3.36009E+18   7.03156E+10   5.90093E+02   3.77936E-02   1.39195E-08
 5.87500E+00   3.38902E+18   7.04967E+10   5.91144E+02   3.76893E-02   1.38670E-08
 5.92500E+00   3.40875E+18   7.04815E+10   5.91146E+02   3.75726E-02   1.38259E-08
 5.97500E+00   3.41924E+18   7.04660E+10   5.90134E+02   3.74458E-02   1.37962E-08
 6.02500E+00   3.42060E+18   6.98942E+10   5.88158E+02   3.73116E-02   1.37779E-08
 6.07500E+00   3.41309E+18   6.78105E+10   5.85282E+02   3.71725E-02   1.37708E-08
 6.12500E+00   3.39711E+18   6.47314E+10   5.81583E+02   3.70309E-02   1.37748E-08
 6.17500E+00   3.37317E+18   6.09969E+10   5.77148E+02   3.68896E-02   1.37898E-08
 6.22500E+00   3.34194E+18   5.68536E+10   5.72074E+02   3.67509E-02   1.38152E-08
 6.27500E+00   3.30414E+18   5.24796E+10   5.66465E+02   3.66170E-02   1.38508E-08
 6.32500E+00   3.26062E+18   4.80026E+10   5.60431E+02   3.64901E-02   1.38961E-08
 6.37500E+00   3.21230E+18   4.35247E+10   5.54086E+02   3.63722E-02   1.39504E-08
 6.42500E+00   3.16013E+18   3.91363E+10   5.47547E+02   3.62649E-02   1.40129E-08
 6.47500E+00   3.10511E+18   3.49217E+10   5.40927E+02   3.61699E-02   1.40829E-08
 6.52500E+00   3.04826E+18   3.09600E+10   5.34341E+02   3.60884E-02   1.41592E-08
 6.57500E+00   2.99059E+18   2.73230E+10   5.27899E+02   3.60213E-02   1.42408E-08
 6.62500E+00   2.93311E+18   2.40716E+10   5.21703E+02   3.59695E-02   1.43264E-08
 6.67500E+00   2.87677E+18   2.12530E+10   5.15852E+02   3.59334E-02   1.44145E-08
 6.72500E+00   2.82250E+18   1.88985E+10   5.10434E+02   3.59132E-02   1.45036E-08
 6.77500E+00   2.77114E+18   1.70222E+10   5.05527E+02   3.59088E-02   1.45920E-08
 6.82500E+00   2.72345E+18   1.56204E+10   5.01199E+02   3.59199E-02   1.46782E-08
 6.87500E+00   2.68013E+18   1.46728E+10   4.97505E+02   3.59459E-02   1.47604E-08
 6.92500E+00   2.64176E+18   1.41381E+10   4.94489E+02   3.59860E-02   1.48371E-08
 6.97500E+00   2.60882E+18   1.39876E+10   4.92181E+02   3.60392E-02   1.49066E-08
 7.02500E+00   2.58169E+18   1.39845E+10   4.90599E+02   3.61041E-02   1.49676E-08
 7.07500E+00   2.56062E+18   1.39816E+10   4.89747E+02   3.61795E-02   1.50190E-08
 7.12500E+00   2.54578E+18   1.40950E+10   4.89618E+02   3.62637E-02   1.50598E-08
 7.17500E+00   2.53718E+18   1.48072E+10   4.90190E+02   3.63550E-02   1.50894E-08
 7.22500E+00   2.53478E+18   1.60001E+10   4.91432E+02   3.64519E-02   1.51076E-08
 7.27500E+00   2.53839E+18   1.75413E+10   4.93302E+02   3.65524E-02   1.51143E-08
 7.32500E+00   2.54774E+18   1.93542E+10   4.95749E+02   3.66548E-02   1.51098E-08
 7.37500E+00   2.56249E+18   2.14014E+10   4.98713E+02   3.67573E-02   1.50949E-08
 7.42500E+00   2.58219E+18   2.36776E+10   5.02126E+02   3.68582E-02   1.50701E-08
 7.47500E+00   2.60635E+18   2.61992E+10   5.05916E+02   3.69559E-02   1.50367E-08
 7.52500E+00   2.63440E+18   2.89929E+10   5.10007E+02   3.70488E-02   1.49957E-08
 7.57500E+00   2.66573E+18   3.20837E+10   5.14320E+02   3.71355E-02   1.49483E-08
 7.62500E+00   2.69970E+18   3.54829E+10   5.18775E+02   3.72149E-02   1.48960E-08
 7.67500E+00   2.73566E+18   3.91776E+10   5.23290E+02   3.72857E-02   1.48398E-08
 7.72500E+00   2.77291E+18   4.31222E+10   5.27789E+02   3.73472E-02   1.47812E-08
 7.77500E+00   2.81081E+18   4.72340E+10   5.32194E+02   3.73985E-02   1.47212E-08
 7.82500E+00   2.84867E+18   5.13947E+10   5.36436E+02   3.74393E-02   1.46610E-08
 7.87500E+00   2.88588E+18   5.54582E+10   5.40448E+02   3.74692E-02   1.46016E-08
 7.92500E+00   2.92182E+18   5.92644E+10   5.44169E+02   3.74881E-02   1.45439E-08
 7.97500E+00   2.95595E+18   6.26560E+10   5.47547E+02   3.74961E-02   1.44888E-08
 8.02500E+00   2.98774E+18   6.54965E+10   5.50537E+02   3.74934E-02   1.44368E-08
 8.07500E+00   3.01676E+18   6.76864E+10   5.53102E+02   3.74805E-02   1.43888E-08
 8.12500E+00   3.04261E+18   6.91751E+10   5.55213E+02   3.74580E-02   1.43450E-08
 8.17500E+00   3.06497E+18   6.99837E+10   5.56850E+02   3.74267E-02   1.43061E-08
 8.22500E+00   3.08358E+18   7.01435E+10   5.58002E+02   3.73872E-02   1.42722E-08
 8.27500E+00   3.09828E+18   7.01754E+10   5.58667E+02   3.73407E-02   1.42437E-08
 8.32500E+00   3.10895E+18   7.02083E+10   5.58850E+02   3.72882E-02   1.42207E-08
 8.37500E+00   3.11555E+18   6.95548E+10   5.58565E+02   3.72307E-02   1.42033E-08
 8.42500E+00   3.11812E+18   6.74067E+10   5.57834E+02   3.71694E-02   1.41916E-08
 8.47500E+00   3.11676E+18   6.42886E+10   5.56684E+02   3.71054E-02   1.41855E-08
 8.52500E+00   3.11162E+18   6.05068E+10   5.55149E+02   3.70400E-02   1.41850E-08
 8.57500E+00   3.10293E+18   5.63075E+10   5.53269E+02   3.69741E-02   1.41898E-08
 8.62500E+00   3.09095E+18   5.18801E+10   5.51087E+02   3.69090E-02   1.41998E-08
 8.67500E+00   3.07600E+18   4.73696E+10   5.48650E+02   3.68457E-02   1.42146E-08
 8.72500E+00   3.05842E+18   4.28906E+10   5.46009E+02   3.67851E-02   1.42340E-08
 8.77500E+00   3.03861E+18   3.85363E+10   5.43214E+02   3.67282E-02   1.42575E-08
 8.82500E+00   3.01696E+18   3.43871E+10   5.40317E+02   3.66757E-02   1.42847E-08
 8.87500E+00   2.99391E+18   3.05136E+10   5.37371E+02   3.66283E-02   1.43151E-08
 8.92500E+00   2.96987E+18   2.69786E+10   5.34426E+02   3.65867E-02   1.43482E-08
 8.97500E+00   2.94528E+18   2.38347E+10   5.31530E+02   3.65512E-02   1.43833E-08
 9.02500E+00   2.92057E+18   2.11222E+10   5.28730E+02   3.65223E-02   1.44200E-08
 9.07500E+00   2.89614E+18   1.88663E+10   5.26069E+02   3.65002E-02   1.44575E-08
 9.12500E+00   2.87239E+18   1.70744E+10   5.23585E+02   3.64850E-02   1.44952E-08
 9.17500E+00   2.84969E+18   1.57356E+10   5.21314E+02   3.64767E-02   1.45325E-08
 9.22500E+00   2.82837E+18   1.48212E+10   5.19284E+02   3.64752E-02   1.45687E-08
 9.27500E+00   2.80873E+18   1.42871E+10   5.17520E+02   3.64803E-02   1.46033E-08
 9.32500E+00   2.79104E+18   1.40900E+10   5.16042E+02   3.64916E-02   1.46356E-08
 9.37500E+00   2.77552E+18   1.40880E+10   5.14864E+02   3.65088E-02   1.46651E-08
 9.42500E+00   2.76235E+18   1.40912E+10   5.13994E+02   3.65314E-02   1.46914E-08
 9.47500E+00   2.75166E+18   1.41315E+10   5.13435E+02   3.65588E-02   1.47141E-08
 9.52500E+00   2.74354E+18   1.47036E+10   5.13186E+02   3.65905E-02   1.47329E-08
 9.57500E+00   2.73804E+18   1.57918E+10   5.13240E+02   3.66257E-02   1.47474E-08
 9.62500E+00   2.73515E+18   1.72630E+10   5.13585E+02   3.66638E-02   1.47577E-08
 9.67500E+00   2.73484E+18   1.90288E+10   5.14206E+02   3.67041E-02   1.47637E-08
 9.72500E+00   2.73701E+18   2.10496E+10   5.15083E+02   3.67460E-02   1.47654E-08
 9.77500E+00   2.74155E+18   2.33179E+10   5.16194E+02   3.67887E-02   1.47630E-08
 9.82500E+00   2.74831E+18   2.58464E+10   5.17512E+02   3.68315E-02   1.47566E-08
 9.87500E+00   2.75708E+18   2.86558E+10   5.19009E+02   3.68737E-02   1.47465E-08
 9.92500E+00   2.76767E+18   3.17628E+10   5.20655E+02   3.69146E-02   1.47332E-08
 9.97500E+00   2.77984E+18   3.51686E+10   5.22418E+02   3.69535E-02   1.47168E-08
 1.00250E+01   2.79333E+18   3.88500E+10   5.24265E+02   3.69900E-02   1.46979E-08
 1.00750E+01   2.80788E+18   4.27535E+10   5.26163E+02   3.70234E-02   1.46769E-08
 1.01250E+01   2.82322E+18   4.67938E+10   5.28079E+02   3.70532E-02   1.46542E-08
 1.01750E+01   2.83906E+18   5.08573E+10   5.29982E+02   3.70791E-02   1.46303E-08
 1.02250E+01   2.85513E+18   5.48105E+10   5.31840E+02   3.71008E-02   1.46056E-08
 1.02750E+01   2.87117E+18   5.85127E+10   5.33625E+02   3.71180E-02   1.45807E-08
 1.03250E+01   2.88690E+18   6.18293E+10   5.35310E+02   3.71307E-02   1.45558E-08
 1.03750E+01   2.90209E+18   6.46458E+10   5.36871E+02   3.71388E-02   1.45314E-08
 1.04250E+01   2.91651E+18   6.68789E+10   5.38288E+02   3.71423E-02   1.45079E-08
 1.04750E+01   2.92994E+18   6.84853E+10   5.39540E+02   3.71413E-02   1.44855E-08
 1.05250E+01   2.94220E+18   6.94638E+10   5.40615E+02   3.71360E-02   1.44647E-08
 1.05750E+01   2.95312E+18   6.98327E+10   5.41499E+02   3.71266E-02   1.44456E-08
 1.06250E+01   2.96259E+18   6.98361E+10   5.42186E+02   3.71135E-02   1.44285E-08
 1.06750E+01   2.97048E+18   6.98286E+10   5.42669E+02   3.70970E-02   1.44136E-08
 1.07250E+01   2.97672E+18   6.96910E+10   5.42949E+02   3.70774E-02   1.44010E-08
 1.07750E+01   2.98127E+18   6.82227E+10   5.43027E+02   3.70552E-02   1.43908E-08
 1.08250E+01   2.98411E+18   6.55337E+10   5.42910E+02   3.70309E-02   1.43831E-08
 1.08750E+01   2.98525E+18   6.20054E+10   5.42604E+02   3.70049E-02   1.43779E-08
 1.09250E+01   2.98473E+18   5.79426E+10   5.42123E+02   3.69776E-02   1.43752E-08
 1.09750E+01   2.98261E+18   5.35714E+10   5.41479E+02   3.69497E-02   1.43749E-08
 1.10250E+01   2.97899E+18   4.90648E+10   5.40689E+02   3.69216E-02   1.43771E-08
 1.10750E+01   2.97396E+18   4.45553E+10   5.39769E+02   3.68936E-02   1.43816E-08
 1.11250E+01   2.96766E+18   4.01473E+10   5.38741E+02   3.68664E-02   1.43882E-08
 1.11750E+01   2.96024E+18   3.59268E+10   5.37624E+02   3.68403E-02   1.43968E-08
 1.12250E+01   2.95185E+18   3.19671E+10   5.36439E+02   3.68156E-02   1.44072E-08
 1.12750E+01   2.94267E+18   2.83312E+10   5.35208E+02   3.67928E-02   1.44192E-08
 1.13250E+01   2.93286E+18   2.50714E+10   5.33953E+02   3.67722E-02   1.44326E-08
 1.13750E+01   2.92262E+18   2.22277E+10   5.32695E+02   3.67540E-02   1.44470E-08
 1.14250E+01   2.91212E+18   1.98262E+10   5.31455E+02   3.67383E-02   1.44623E-08
 1.14750E+01   2.90154E+18   1.78771E+10   5.30253E+02   3.67255E-02   1.44782E-08
 1.15250E+01   2.89107E+18   1.63743E+10   5.29106E+02   3.67156E-02   1.44944E-08
 1.15750E+01   2.88086E+18   1.52952E+10   5.28033E+02   3.67087E-02   1.45106E-08
 1.16250E+01   2.87108E+18   1.46034E+10   5.27048E+02   3.67048E-02   1.45265E-08
 1.16750E+01   2.86187E+18   1.42452E+10   5.26164E+02   3.67038E-02   1.45419E-08
 1.17250E+01   2.85337E+18   1.41810E+10   5.25393E+02   3.67057E-02   1.45566E-08
 1.17750E+01   2.84569E+18   1.41781E+10   5.24743E+02   3.67104E-02   1.45703E-08
 1.18250E+01   2.83893E+18   1.41751E+10   5.24221E+02   3.67176E-02   1.45828E-08
 1.18750E+01   2.83316E+18   1.43755E+10   5.23831E+02   3.67272E-02   1.45940E-08
 1.19250E+01   2.82846E+18   1.52115E+10   5.23576E+02   3.67389E-02   1.46036E-08
 1.19750E+01   2.82486E+18   1.65112E+10   5.23454E+02   3.67525E-02   1.46116E-08
 1.20250E+01   2.82239E+18   1.81701E+10   5.23464E+02   3.67677E-02   1.46179E-08
 1.20750E+01   2.82104E+18   2.01327E+10   5.23601E+02   3.67842E-02   1.46224E-08
 1.21250E+01   2.82081E+18   2.23769E+10   5.23858E+02   3.68016E-02   1.46251E-08
 1.21750E+01   2.82165E+18   2.49040E+10   5.24228E+02   3.68197E-02   1.46261E-08
 1.22250E+01   2.82353E+18   2.77255E+10   5.24700E+02   3.68381E-02   1.46253E-08
 1.22750E+01   2.82637E+18   3.08499E+10   5.25262E+02   3.68566E-02   1.46228E-08
 1.23250E+01   2.83009E+18   3.42722E+10   5.25904E+02   3.68747E-02   1.46188E-08
 1.23750E+01   2.83461E+18   3.79643E+10   5.26611E+02   3.68923E-02   1.46133E-08
 1.24250E+01   2.83981E+18   4.18707E+10   5.27369E+02   3.69090E-02   1.46066E-08
 1.24750E+01   2.84561E+18   4.59073E+10   5.28166E+02   3.69246E-02   1.45987E-08
 1.25250E+01   2.85187E+18   4.99647E+10   5.28985E+02   3.69389E-02   1.45899E-08
 1.25750E+01   2.85847E+18   5.39160E+10   5.29812E+02   3.69517E-02   1.45804E-08
 1.26250E+01   2.86531E+18   5.76274E+10   5.30635E+02   3.69628E-02   1.45702E-08
 1.26750E+01   2.87225E+18   6.09704E+10   5.31438E+02   3.69721E-02   1.45597E-08
 1.27250E+01   2.87918E+18   6.38356E+10   5.32210E+02   3.69795E-02   1.45490E-08
 1.27750E+01   2.88598E+18   6.61438E+10   5.32939E+02   3.69850E-02   1.45383E-08
 1.28250E+01   2.89255E+18   6.78535E+10   5.33614E+02   3.69885E-02   1.45277E-08
 1.28750E+01   2.89878E+18   6.89600E+10   5.34225E+02   3.69899E-02   1.45175E-08
